1.4,-0.249516880944948
1.4001,-0.225362078132177
1.4002,-0.239210831683904
1.4003,-0.226006206200758
1.4004,-0.245652112461332
1.4005,-0.22278556586133
1.4006,-0.219886989563261
1.4007,-0.214733965050618
1.4008,-0.250161009026808
1.4009,-0.273027556168426
1.401,-0.304267769219103
1.4011,-0.288164566504474
1.4012,-0.263365634784732
1.4013,-0.252415457316155
1.4014,-0.239854959760045
1.4015,-0.223751757962246
1.4016,-0.218920797465461
1.4017,-0.187358522691482
1.4018,-0.173509769726465
1.4019,-0.1760862818946
1.402,-0.135184151825174
1.4021,-0.159338952893626
1.4022,-0.14291368811967
1.4023,-0.144524008186597
1.4024,-0.160305144945509
1.4025,-0.159983080928135
1.4026,-0.157728632808736
1.4027,-0.129709063643154
1.4028,-0.125522231518701
1.4029,-0.104266007080663
1.403,-0.121657463415076
1.4031,-0.137760663918437
1.4032,-0.201529339836798
1.4033,-0.235023999197622
1.4034,-0.252737521357851
1.4035,-0.286232182194705
1.4036,-0.300725064601349
1.4037,-0.291063142975515
1.4038,-0.313929690963402
1.4039,-0.326812253426077
1.404,-0.373833607780881
1.4041,-0.367714390309354
1.4042,-0.396700157617027
1.4043,-0.43438165642475
1.4044,-0.477538246693012
1.4045,-0.452095182032118
1.4046,-0.451128989717404
1.4047,-0.459824720586954
1.4048,-0.434059592325959
1.4049,-0.402819375270275
1.405,-0.405073823889215
1.4051,-0.390903004086642
1.4052,-0.376410120411784
1.4053,-0.357730403989044
1.4054,-0.344203713003014
1.4055,-0.361917236949965
1.4056,-0.336796239443734
1.4057,-0.319082715929577
1.4058,-0.267230403328257
1.4059,-0.239854959760045
1.406,-0.22890478251369
1.4061,-0.204105852062448
1.4062,-0.219564925530575
1.4063,-0.191545355013106
1.4064,-0.170289129523567
1.4065,-0.145168136213908
1.4066,-0.0962144069977732
1.4067,-0.114572055252935
1.4068,-0.117792695322188
1.4069,-0.0794670789678029
1.407,-0.0649741990937123
1.4071,-0.106198391107274
1.4072,-0.0810773989624339
1.4073,-0.0881628069595694
1.4074,-0.0859083589567976
1.4075,-0.0279368400303733
1.4076,-0.0179528564285328
1.4077,-0.0063585529657067
1.4078,0.0171521177054738
1.4079,0.0435613638458604
1.408,0.0625631382791527
1.4081,0.0767339529915874
1.4082,0.101210814538333
1.4083,0.141468809911478
1.4084,0.161436775363115
1.4085,0.168200118464198
1.4086,0.215543519701778
1.4087,0.23615561252082
1.4088,0.30153459362577
1.4089,0.347589737346656
1.409,0.381084387086396
1.4091,0.40781569397884
1.4092,0.424240954801921
1.4093,0.44163240741303
1.4094,0.468685778104264
1.4095,0.480924207693088
1.4096,0.475449120772269
1.4097,0.491874381533121
1.4098,0.49155231759667
1.4099,0.482856591312048
1.41,0.473194673216419
1.4101,0.484788974930942
1.4102,0.523114583371239
1.4103,0.498959788134936
1.4104,0.467075458421189
1.4105,0.385593282231077
1.4106,0.369168021333315
1.4107,0.35531927191778
1.4108,0.335995435470243
1.4109,0.328265900872034
1.411,0.273837094379173
1.4111,0.262564856257955
1.4112,0.250326426258416
1.4113,0.229392269579297
1.4114,0.174319333635801
1.4115,0.1382481703073
1.4116,0.0873620639613269
1.4117,0.0834972963422666
1.4118,0.0567659867768332
1.4119,0.0490364514136079
1.412,0.0628852022510039
1.4121,0.0338994445699884
1.4122,0.0322891246858181
1.4123,0.0203727574990939
1.4124,0.0306788048002469
1.4125,0.00781226227111659
1.4126,-0.0227838162283536
1.4127,-0.0266485840783557
1.4128,-0.0530578313001563
1.4129,-0.0665845190728838
1.413,-0.0417855915790201
1.4131,-0.0678727750574435
1.4132,-0.0533798952933744
1.4133,-0.0730257990066016
1.4134,-0.0839759749571625
1.4135,-0.0456503594743627
1.4136,-0.0553122792540775
1.4137,-0.0623976871305584
1.4138,-0.0388870156636547
1.4139,-0.0366325677331007
1.414,-0.0649741990937123
1.4141,-0.0424297195609259
1.4142,-0.0942820229845517
1.4143,-0.0739919909990222
1.4144,-0.0849421669566644
1.4145,-0.0949261509886733
1.4146,-0.131963511715449
1.4147,-0.153863864613037
1.4148,-0.146134328255456
1.4149,-0.159661016910841
1.415,-0.125844295527823
1.4151,-0.135506215836564
1.4152,-0.125522231518701
1.4153,-0.134862087813859
1.4154,-0.125522231518701
1.4155,-0.133251767758427
1.4156,-0.11747063131493
1.4157,-0.125200167509654
1.4158,-0.160627208962962
1.4159,-0.174798025809885
1.416,-0.190579162937644
1.4161,-0.223107629894882
1.4162,-0.230837166726245
1.4163,-0.226972398304283
1.4164,-0.213767772956947
1.4165,-0.216022221176715
1.4166,-0.229548910584191
1.4167,-0.230193038655043
1.4168,-0.237922575532686
1.4169,-0.258534674123867
1.417,-0.21022506862007
1.4171,-0.214089836988085
1.4172,-0.200241083725995
1.4173,-0.213123644894927
1.4174,-0.225040014098017
1.4175,-0.22149730972799
1.4176,-0.194765995270046
1.4177,-0.179306922112069
1.4178,-0.176408345915981
1.4179,-0.167068489328709
1.418,-0.12745461557456
1.4181,-0.155474184693202
1.4182,-0.127776679584133
1.4183,-0.0978247270107569
1.4184,-0.101367431045637
1.4185,-0.100401239035261
1.4186,-0.061753559140445
1.4187,-0.0971805990053486
1.4188,-0.0636859431115947
1.4189,-0.0900951909646953
1.419,-0.0688389670465782
1.4191,-0.104588071084917
1.4192,-0.119080951351962
1.4193,-0.138726855954671
1.4194,-0.151931480519427
1.4195,-0.169645001483953
1.4196,-0.156762440758748
1.4197,-0.155474184693202
1.4198,-0.170289129523567
1.4199,-0.18123930624646
1.42,-0.172221513644338
1.4201,-0.162881657087352
1.4202,-0.18671439464324
1.4203,-0.16996706550372
1.4204,-0.185104074524077
1.4205,-0.197342507481598
1.4206,-0.189290906838187
1.4207,-0.226650334269687
1.4208,-0.223751757962246
1.4209,-0.189612970862927
1.421,-0.208292684440668
1.4211,-0.213123644894927
1.4212,-0.226328270235179
1.4213,-0.231803358833706
1.4214,-0.22278556586133
1.4215,-0.231803358833706
1.4216,-0.219564925530575
1.4217,-0.216344285208454
1.4218,-0.225040014098017
1.4219,-0.171899449624008
1.422,-0.143235752132901
1.4221,-0.122945719448422
1.4222,-0.0962144069977732
1.4223,-0.0759243749857226
1.4224,-0.0685169030501318
1.4225,-0.0556343432477608
1.4226,-0.00571442499787257
1.4227,-0.0150542805553537
1.4228,0.0258478451350786
1.4229,0.0831752323736883
1.423,0.0767339529915874
1.4231,0.0973460469444612
1.4232,0.101210814538333
1.4233,0.117958140699851
1.4234,0.100566686606501
1.4235,0.117314012772883
1.4236,0.0973460469444612
1.4237,0.149520408903237
1.4238,0.112483053314764
1.4239,0.100244622640513
1.424,0.0989563667760812
1.4241,0.0979901748772536
1.4242,0.12343322807172
1.4243,0.116669884845732
1.4244,0.116025756918398
1.4245,0.140824681990987
1.4246,0.111838925386229
1.4247,0.108940349705517
1.4248,0.140824681990987
1.4249,0.120534652405895
1.425,0.0876841279292598
1.4251,0.100566686606501
1.4252,0.0863958720572316
1.4253,0.0512908992310727
1.4254,0.0628852022510039
1.4255,0.0583763066403045
1.4256,0.0551556669120344
1.4257,0.0445275557707235
1.4258,0.0335773805932662
1.4259,0.0367980203579799
1.426,0.0152197338265269
1.4261,0.0200506935199911
1.4262,0.0487143874394686
1.4263,0.0454937476950955
1.4264,0.0522570911520362
1.4265,0.0570880507496335
1.4266,0.0287464209357052
1.4267,0.0107108381008367
1.4268,0.0516129632047809
1.4269,0.0857517441209204
1.427,0.0896165117358217
1.4271,0.0635293301945493
1.4272,0.0171521177054738
1.4273,0.0461378756444045
1.4274,0.0145756058664136
1.4275,-0.00732474491791318
1.4276,-0.0459724234660656
1.4277,-0.113605863233598
1.4278,-0.0833318469578447
1.4279,-0.0643300711025181
1.428,-0.0733478630040064
1.4281,-0.0817215269607737
1.4282,-0.0607873671557799
1.4283,-0.0949261509886733
1.4284,-0.130031127653255
1.4285,-0.146134328255456
1.4286,-0.203139659977197
1.4287,-0.243075600146083
1.4288,-0.225362078132177
1.4289,-0.241143215913393
1.429,-0.239854959760045
1.4291,-0.232125422869701
1.4292,-0.218276669400693
1.4293,-0.21247951683325
1.4294,-0.231159230761977
1.4295,-0.21022506862007
1.4296,-0.243397664185177
1.4297,-0.260144994341873
1.4298,-0.277858516891517
1.4299,-0.22890478251369
1.43,-0.269162787604988
1.4301,-0.286876310297583
1.4302,-0.3290667018733
1.4303,-0.350000866260686
1.4304,-0.378342504889379
1.4305,-0.359340724356565
1.4306,-0.357730403989044
1.4307,-0.350967058473506
1.4308,-0.359662788430379
1.4309,-0.393479516762522
1.431,-0.395411901273935
1.4311,-0.408938592962648
1.4312,-0.430838951344204
1.4313,-0.439212617920108
1.4314,-0.461112977019199
1.4315,-0.461757105236014
1.4316,-0.432127207735563
1.4317,-0.431805143637555
1.4318,-0.452739310242499
1.4319,-0.476249990237041
1.432,-0.462723297562102
1.4321,-0.516185941256513
1.4322,-0.474961733782946
1.4323,-0.507490209828915
1.4324,-0.472385220880371
1.4325,-0.466910130987185
1.4326,-0.418600515715122
1.4327,-0.403463503446572
1.4328,-0.365137877701028
1.4329,-0.312963498785033
1.433,-0.250483073067873
1.4331,-0.214089836988085
1.4332,-0.177374537980612
1.4333,-0.157728632808736
1.4334,-0.147100520297701
1.4335,-0.107808711131448
1.4336,-0.0768905669800045
1.4337,-0.0430738475430918
1.4338,-0.0469386154415669
1.4339,-0.0546681512669105
1.434,-0.0417855915790201
1.4341,-0.0169866644702491
1.4342,0.030034676845625
1.4343,0.0181183096441656
1.4344,0.0706147375598144
1.4345,0.0851076161844108
1.4346,0.109906541599508
1.4347,0.119246396553237
1.4348,0.181082676703854
1.4349,0.201050641855616
1.435,0.218764159213674
1.4351,0.215543519701778
1.4352,0.258055960999841
1.4353,0.266751687564086
1.4354,0.262242792311132
1.4355,0.302500785456653
1.4356,0.312484767696899
1.4357,0.288974099804539
1.4358,0.328910028755661
1.4359,0.251936745997611
1.436,0.224239246376205
1.4361,0.2548353215263
1.4362,0.227781949829227
1.4363,0.268039943349637
1.4364,0.246783722829557
1.4365,0.217475903409321
1.4366,0.263531048098253
1.4367,0.289940291638271
1.4368,0.270616454919413
1.4369,0.23776593226674
1.437,0.171742821986329
1.4371,0.146621833269255
1.4372,0.144367385551569
1.4373,0.107974157811105
1.4374,0.110228605564078
1.4375,0.119890524479657
1.4376,0.0931592153765963
1.4377,0.0696485456478441
1.4378,0.0764118890219526
1.4379,0.0805987206232614
1.438,0.0931592153765963
1.4381,0.0783442728390015
1.4382,0.0161859257662613
1.4383,-0.00217172117911022
1.4384,-0.0231058802155082
1.4385,-0.038564951673382
1.4386,-0.0276147760422741
1.4387,-0.0781788229733491
1.4388,-0.0917055109709124
1.4389,-0.0778567589749091
1.439,-0.0504813193567955
1.4391,-0.0424297195609259
1.4392,0.000726854667185417
1.4393,-0.00732474491791318
1.4394,-0.0256823921150056
1.4395,-0.0276147760422741
1.4396,-0.0347001837951353
1.4397,-0.0623976871305584
1.4398,-0.0656183270851774
1.4399,-0.0813994629615689
1.44,-0.0685169030501318
1.4401,-0.0759243749857226
1.4402,-0.0633638791162343
1.4403,-0.0926717029754939
1.4404,-0.085586294956683
1.4405,-0.0958923429953911
1.4406,-0.0942820229845517
1.4407,-0.0884848709602471
1.4408,-0.0710934150236146
1.4409,-0.0739919909990222
1.441,-0.0820435909600482
1.4411,-0.0962144069977732
1.4412,-0.0846201029567604
1.4413,-0.0817215269607737
1.4414,-0.0649741990937123
1.4415,-0.0717375430176693
1.4416,-0.0768905669800045
1.4417,-0.119403015359591
1.4418,-0.100079175031946
1.4419,-0.11586031127975
1.442,-0.136150343859575
1.4421,-0.0991129830224341
1.4422,-0.149354968398992
1.4423,-0.145812264241529
1.4424,-0.123267783456945
1.4425,-0.130675255673684
1.4426,-0.151931480519427
1.4427,-0.121013335398851
1.4428,-0.127132551565062
1.4429,-0.122623655439973
1.443,-0.131641447704894
1.4431,-0.134862087813859
1.4432,-0.131963511715449
1.4433,-0.0962144069977732
1.4434,-0.111029351185267
1.4435,-0.116826503300636
1.4436,-0.0933158309789035
1.4437,-0.0543460872734269
1.4438,-0.0369546317229866
1.4439,-0.044040039516829
1.444,-0.0240720721773484
1.4441,-0.0150542805553537
1.4442,-0.00668061694971478
1.4443,0.0342215085466548
1.4444,0.0522570911520362
1.4445,0.0561218588310732
1.4446,0.0863958720572316
1.4447,0.0764118890219526
1.4448,0.0615969463632845
1.4449,0.0896165117358217
1.445,0.0493585153876932
1.4451,0.0557997948581135
1.4452,0.0287464209357052
1.4453,0.0471040675679603
1.4454,0.0287464209357052
1.4455,0.0413069160192642
1.4456,0.0348656364998201
1.4457,0.0409848520438166
1.4458,0.0181183096441656
1.4459,-0.000239337281039864
1.446,-0.015376344541015
1.4461,-0.0517695753279467
1.4462,-0.0733478630040064
1.4463,-0.0488709993943411
1.4464,-0.0772126309782368
1.4465,-0.111351415191052
1.4466,-0.12681048755564
1.4467,-0.123589847465542
1.4468,-0.0991129830224341
1.4469,-0.11167347919691
1.447,-0.0997571110287036
1.4471,-0.106520455111963
1.4472,-0.0849421669566644
1.4473,-0.10168949504924
1.4474,-0.0942820229845517
1.4475,-0.0997571110287036
1.4476,-0.112639671214923
1.4477,-0.12745461557456
1.4478,-0.12745461557456
1.4479,-0.11586031127975
1.448,-0.124878103500682
1.4481,-0.131963511715449
1.4482,-0.10716458312156
1.4483,-0.131963511715449
1.4484,-0.134862087813859
1.4485,-0.113605863233598
1.4486,-0.145812264241529
1.4487,-0.127776679584133
1.4488,-0.121657463415076
1.4489,-0.111995543202841
1.449,-0.154185928628913
1.4491,-0.148388776355115
1.4492,-0.184459946476988
1.4493,-0.173509769726465
1.4494,-0.159338952893626
1.4495,-0.135184151825174
1.4496,-0.15579624870947
1.4497,-0.158050696825556
1.4498,-0.161915465033565
1.4499,-0.184137882453566
1.45,-0.170289129523567
1.4501,-0.168034681386324
1.4502,-0.165136105215638
1.4503,-0.143235752132901
1.4504,-0.147100520297701
1.4505,-0.138726855954671
1.4506,-0.158694824859433
1.4507,-0.184137882453566
1.4508,-0.160949272980494
1.4509,-0.149999096428633
1.451,-0.158694824859433
1.4511,-0.185104074524077
1.4512,-0.210547132650268
1.4513,-0.186392330619243
1.4514,-0.157406568791994
1.4515,-0.167712617367039
1.4516,-0.162881657087352
1.4517,-0.152253544534833
1.4518,-0.169645001483953
1.4519,-0.167068489328709
1.452,-0.193155675140537
1.4521,-0.223751757962246
1.4522,-0.236312255345656
1.4523,-0.203783788033946
1.4524,-0.160627208962962
1.4525,-0.180917242223858
1.4526,-0.167712617367039
1.4527,-0.155474184693202
1.4528,-0.166746425309664
1.4529,-0.140015112004057
1.453,-0.141303368054671
1.4531,-0.131319383694415
1.4532,-0.135828279848031
1.4533,-0.115216183266195
1.4534,-0.133573831769361
1.4535,-0.169000873444661
1.4536,-0.150965288473679
1.4537,-0.166746425309664
1.4538,-0.151609416504099
1.4539,-0.183171690383794
1.454,-0.169322937464267
1.4541,-0.163525785123607
1.4542,-0.184782010500491
1.4543,-0.185748202571496
1.4544,-0.202173467892705
1.4545,-0.174475961788909
1.4546,-0.166424361290699
1.4547,-0.17544215385208
1.4548,-0.186070266595328
1.4549,-0.214089836988085
1.455,-0.24597417650114
1.4551,-0.217632541336269
1.4552,-0.205716172206223
1.4553,-0.19637631540164
1.4554,-0.190579162937644
1.4555,-0.181561370269145
1.4556,-0.173509769726465
1.4557,-0.162559593069343
1.4558,-0.191223290987869
1.4559,-0.185104074524077
1.456,-0.180595178201337
1.4561,-0.175764217873299
1.4562,-0.14291368811967
1.4563,-0.102655687060481
1.4564,-0.131319383694415
1.4565,-0.147100520297701
1.4566,-0.132607639736786
1.4567,-0.114249991246415
1.4568,-0.147100520297701
1.4569,-0.135506215836564
1.457,-0.140981304041903
1.4571,-0.112317607208845
1.4572,-0.100723303038647
1.4573,-0.111029351185267
1.4574,-0.121335399406927
1.4575,-0.105876327102657
1.4576,-0.101045367042106
1.4577,-0.0991129830224341
1.4578,-0.1223015914316
1.4579,-0.1165044392936
1.458,-0.0891289989618144
1.4581,-0.0839759749571625
1.4582,-0.0247162001522225
1.4583,-0.0433959115342724
1.4584,-0.0224617522412617
1.4585,0.0113549660623507
1.4586,0.0245595892222135
1.4587,0.0422731079452772
1.4588,0.0496805793617246
1.4589,0.0548336029389149
1.459,0.0603086904747249
1.4591,0.0657837779953133
1.4592,0.00749019828974218
1.4593,0.0390524681899751
1.4594,-0.015376344541015
1.4595,-0.0173087284562816
1.4596,-0.00281584914561474
1.4597,-0.00893506483947391
1.4598,-0.0147322165697541
1.4599,0.0107108381008367
1.46,-0.0224617522412617
1.4601,-0.0347001837951353
1.4602,-0.0108674487473602
1.4603,-0.00249378516233236
1.4604,-0.00861300085503992
1.4605,-0.0224617522412617
1.4606,-0.0173087284562816
1.4607,-0.038242887683174
1.4608,-0.0450062314911533
1.4609,-0.107486647126467
1.461,-0.0759243749857226
1.4611,-0.103943943076482
1.4612,-0.109741095162862
1.4613,-0.100079175031946
1.4614,-0.098468855016452
1.4615,-0.129386999633129
1.4616,-0.102977751064373
1.4617,-0.0929937669771631
1.4618,-0.108452839141627
1.4619,-0.114249991246415
1.462,-0.091061382968213
1.4621,-0.0891289989618144
1.4622,-0.0791450149690853
1.4623,-0.110707287179556
1.4624,-0.0978247270107569
1.4625,-0.0965364710002268
1.4626,-0.103299815068337
1.4627,-0.0952482149908412
1.4628,-0.0868745509575632
1.4629,-0.109419031157444
1.463,-0.113605863233598
1.4631,-0.111351415191052
1.4632,-0.106842519116725
1.4633,-0.111351415191052
1.4634,-0.0913834469695273
1.4635,-0.109096967152099
1.4636,-0.0952482149908412
1.4637,-0.1165044392936
1.4638,-0.116826503300636
1.4639,-0.105876327102657
1.464,-0.0981467910135686
1.4641,-0.114249991246415
1.4642,-0.0604653031610261
1.4643,-0.0958923429953911
1.4644,-0.0978247270107569
1.4645,-0.123267783456945
1.4646,-0.111995543202841
1.4647,-0.0952482149908412
1.4648,-0.0891289989618144
1.4649,-0.12681048755564
1.465,-0.11167347919691
1.4651,-0.113605863233598
1.4652,-0.0965364710002268
1.4653,-0.158694824859433
1.4654,-0.168678809425135
1.4655,-0.194443931243978
1.4656,-0.204427916091034
1.4657,-0.195410123322433
1.4658,-0.18993503488775
1.4659,-0.187680586715726
1.466,-0.172543577664749
1.4661,-0.178984858089956
1.4662,-0.161593401015795
1.4663,-0.169645001483953
1.4664,-0.135506215836564
1.4665,-0.127776679584133
1.4666,-0.111029351185267
1.4667,-0.141303368054671
1.4668,-0.140337176016596
1.4669,-0.11747063131493
1.467,-0.121013335398851
1.4671,-0.128098743593782
1.4672,-0.100079175031946
1.4673,-0.0765685029818414
1.4674,-0.120369207382924
1.4675,-0.154185928628913
1.4676,-0.14549020022768
1.4677,-0.140981304041903
1.4678,-0.110063159168354
1.4679,-0.0978247270107569
1.468,-0.102333623056662
1.4681,-0.0511254473422389
1.4682,-0.0350222477846357
1.4683,-0.0305133519374485
1.4684,-0.0237500081900056
1.4685,-0.0147322165697541
1.4686,0.0255257811569476
1.4687,0.0403407240927565
1.4688,0.0425951719205052
1.4689,0.030356740822964
1.469,0.0232713333084368
1.4691,0.00362543050863429
1.4692,0.0287464209357052
1.4693,0.0219830773937462
1.4694,0.0313229327546438
1.4695,0.00942258217710469
1.4696,0.0235933972869666
1.4697,0.0161859257662613
1.4698,0.0413069160192642
1.4699,0.0116770300430199
1.47,-0.0318016078925112
1.4701,-0.0743140549966333
1.4702,-0.0807553349633685
1.4703,-0.101045367042106
1.4704,-0.109419031157444
1.4705,-0.0759243749857226
1.4706,-0.0746361189943133
1.4707,-0.0714154790206077
1.4708,-0.0656183270851774
1.4709,-0.0842980389569264
1.471,-0.0978247270107569
1.4711,-0.108452839141627
1.4712,-0.114572055252935
1.4713,-0.130353191663432
1.4714,-0.118114759329521
1.4715,-0.102333623056662
1.4716,-0.103299815068337
1.4717,-0.10716458312156
1.4718,-0.120047143375072
1.4719,-0.103943943076482
1.472,-0.117148567307746
1.4721,-0.104266007080663
1.4722,-0.123911911474215
1.4723,-0.130353191663432
1.4724,-0.131641447704894
1.4725,-0.151609416504099
1.4726,-0.130997319684012
1.4727,-0.125200167509654
1.4728,-0.14549020022768
1.4729,-0.102011559052915
1.473,-0.1165044392936
1.4731,-0.121657463415076
1.4732,-0.0952482149908412
1.4733,-0.119403015359591
1.4734,-0.125522231518701
1.4735,-0.147100520297701
1.4736,-0.108774903146826
1.4737,-0.126488423546292
1.4738,-0.159661016910841
1.4739,-0.15128735248885
1.474,-0.129709063643154
1.4741,-0.142269560093439
1.4742,-0.130031127653255
1.4743,-0.126488423546292
1.4744,-0.131641447704894
1.4745,-0.149354968398992
1.4746,-0.127776679584133
1.4747,-0.115216183266195
1.4748,-0.117148567307746
1.4749,-0.130031127653255
1.475,-0.158694824859433
1.4751,-0.131641447704894
1.4752,-0.133573831769361
1.4753,-0.110707287179556
1.4754,-0.123589847465542
1.4755,-0.147422584311938
1.4756,-0.133251767758427
1.4757,-0.144524008186597
1.4758,-0.143235752132901
1.4759,-0.18123930624646
1.476,-0.164491977178586
1.4761,-0.15032116044357
1.4762,-0.117148567307746
1.4763,-0.116182375286638
1.4764,-0.0662624550769138
1.4765,-0.065296263089411
1.4766,-0.0607873671557799
1.4767,-0.0488709993943411
1.4768,-0.00474823304657584
1.4769,-0.0247162001522225
1.477,-0.0285809680067616
1.4771,-0.0121557046871752
1.4772,0.0174741816850955
1.4773,0.030034676845625
1.4774,0.0522570911520362
1.4775,0.064817586081013
1.4776,0.083819360310795
1.4777,0.0706147375598144
1.4778,0.0715809294713219
1.4779,0.0802766566542324
1.478,0.0748015691730171
1.4781,0.0380862762623093
1.4782,0.0155417978064964
1.4783,0.00201511059731494
1.4784,0.00942258217710469
1.4785,-0.0131218966426808
1.4786,-0.0859083589567976
1.4787,-0.0691610310430927
1.4788,-0.0701272230330461
1.4789,-0.0801112069654466
1.479,-0.0475827434255623
1.4791,-0.0582108551996287
1.4792,-0.0717375430176693
1.4793,-0.0804332709643727
1.4794,-0.0997571110287036
1.4795,-0.0842980389569264
1.4796,-0.0504813193567955
1.4797,-0.0121557046871752
1.4798,0.0181183096441656
1.4799,-0.00184965719594826
1.48,0.00330336652648955
1.4801,0.0306788048002469
1.4802,0.0332553166164881
1.4803,0.0680382257935289
1.4804,0.0815649125300471
1.4805,0.0905827036384387
1.4806,0.0529012190990769
1.4807,0.0013709826323697
1.4808,-0.0131218966426808
1.4809,8.27267017617997e-05
1.481,0.0187624376030047
1.4811,0.030034676845625
1.4812,0.0171521177054738
1.4813,-0.00571442499787257
1.4814,-0.0675507110612016
1.4815,-0.0662624550769138
1.4816,-0.0520916393208998
1.4817,-0.089451062962704
1.4818,-0.140981304041903
1.4819,-0.131641447704894
1.482,-0.152575608550317
1.4821,-0.1760862818946
1.4822,-0.208936812500128
1.4823,-0.230193038655043
1.4824,-0.235668127271462
1.4825,-0.251127201150273
1.4826,-0.247906560741871
1.4827,-0.236312255345656
1.4828,-0.263687698829521
1.4829,-0.271739299979132
1.483,-0.280112965236139
1.4831,-0.227616526373736
1.4832,-0.221175245694871
1.4833,-0.212801580864046
1.4834,-0.198308699562309
1.4835,-0.183493754406969
1.4836,-0.181883434291911
1.4837,-0.184137882453566
1.4838,-0.15579624870947
1.4839,-0.189612970862927
1.484,-0.19637631540164
1.4841,-0.164491977178586
1.4842,-0.174153897768013
1.4843,-0.167390553347834
1.4844,-0.156440376742244
1.4845,-0.111351415191052
1.4846,-0.10168949504924
1.4847,-0.0578887912054114
1.4848,-0.0627197511257162
1.4849,-0.0379208236930304
1.485,0.00426955847274534
1.4851,-0.0115115767171451
1.4852,-0.0195631763602479
1.4853,-0.0289030319950508
1.4854,-0.0649741990937123
1.4855,-0.0340560558163267
1.4856,-0.0218176242672657
1.4857,-0.0437179755255181
1.4858,-0.038564951673382
1.4859,-0.0318016078925112
1.486,0.0123211580041827
1.4861,0.0509688352573107
1.4862,0.0667499699091456
1.4863,0.0422731079452772
1.4864,0.0435613638458604
1.4865,0.0371200843341454
1.4866,0.0561218588310732
1.4867,0.0564439228039798
1.4868,0.0548336029389149
1.4869,0.0297126128682296
1.487,0.0216610134149305
1.4871,0.00459162245471174
1.4872,0.00813432625243203
1.4873,0.0168300537257942
1.4874,-0.024394136164754
1.4875,0.0255257811569476
1.4876,0.00877845421488609
1.4877,-0.0124777686722823
1.4878,8.27267017617997e-05
1.4879,-0.0334119278377742
1.488,-0.0347001837951353
1.4881,-0.0408193996066485
1.4882,-0.0334119278377742
1.4883,-0.0350222477846357
1.4884,-0.0643300711025181
1.4885,-0.07077135102669
1.4886,-0.0604653031610261
1.4887,-0.0900951909646953
1.4888,-0.085586294956683
1.4889,-0.0862304229569825
1.489,-0.062075623135468
1.4891,-0.0978247270107569
1.4892,-0.112317607208845
1.4893,-0.164491977178586
1.4894,-0.17544215385208
1.4895,-0.18896884281353
1.4896,-0.208936812500128
1.4897,-0.216988413272189
1.4898,-0.202495531920784
1.4899,-0.201529339836798
1.49,-0.200241083725995
1.4901,-0.204427916091034
1.4902,-0.225362078132177
1.4903,-0.250805137109028
1.4904,-0.204105852062448
1.4905,-0.232125422869701
1.4906,-0.221175245694871
1.4907,-0.251449265191608
1.4908,-0.224073821996058
1.4909,-0.232769550941957
1.491,-0.208292684440668
1.4911,-0.18123930624646
1.4912,-0.1760862818946
1.4913,-0.17286564168524
1.4914,-0.140015112004057
1.4915,-0.148710840369663
1.4916,-0.146778456283542
1.4917,-0.15032116044357
1.4918,-0.125522231518701
1.4919,-0.156440376742244
1.492,-0.160949272980494
1.4921,-0.173187705705812
1.4922,-0.172543577664749
1.4923,-0.16835674540569
1.4924,-0.153863864613037
1.4925,-0.167390553347834
1.4926,-0.156440376742244
1.4927,-0.151609416504099
1.4928,-0.135506215836564
1.4929,-0.127776679584133
1.493,-0.124878103500682
1.4931,-0.125844295527823
1.4932,-0.130997319684012
1.4933,-0.14645639226946
1.4934,-0.112961735221074
1.4935,-0.138404791942517
1.4936,-0.158694824859433
1.4937,-0.147100520297701
1.4938,-0.161593401015795
1.4939,-0.197664571508418
1.494,-0.202495531920784
1.4941,-0.236312255345656
1.4942,-0.196054251375154
1.4943,-0.207004428322767
1.4944,-0.178018666024106
1.4945,-0.176730409937443
1.4946,-0.174153897768013
1.4947,-0.156762440758748
1.4948,-0.136472407871194
1.4949,-0.127776679584133
1.495,-0.12681048755564
1.4951,-0.121335399406927
1.4952,-0.100079175031946
1.4953,-0.137116535894663
1.4954,-0.0862304229569825
1.4955,-0.0813994629615689
1.4956,-0.0656183270851774
1.4957,-0.061109431150601
1.4958,-0.0356663757638291
1.4959,-0.0334119278377742
1.496,-0.0459724234660656
1.4961,8.27267017617997e-05
1.4962,0.00652400634526464
1.4963,0.00910051819602481
1.4964,-0.011189512732222
1.4965,-0.0108674487473602
1.4966,-0.0446841674996466
1.4967,-0.0607873671557799
1.4968,-0.0942820229845517
1.4969,-0.118436823336927
1.497,-0.0955702789930804
1.4971,-0.101045367042106
1.4972,-0.105554263098113
1.4973,-0.11586031127975
1.4974,-0.146778456283542
1.4975,-0.130997319684012
1.4976,-0.139370983979211
1.4977,-0.172221513644338
1.4978,-0.135506215836564
1.4979,-0.166102297271814
1.498,-0.152575608550317
1.4981,-0.130031127653255
1.4982,-0.124233975482962
1.4983,-0.138726855954671
1.4984,-0.159338952893626
1.4985,-0.104266007080663
1.4986,-0.0823656549593926
1.4987,-0.0759243749857226
1.4988,-0.0504813193567955
1.4989,-0.0366325677331007
1.499,-0.0121557046871752
1.4991,-0.0160204725125231
1.4992,-0.0137660246133254
1.4993,-0.0227838162283536
1.4994,0.0310008687774734
1.4995,0.0390524681899751
1.4996,0.0664279059379201
1.4997,0.0454937476950955
1.4998,0.0529012190990769
1.4999,0.0367980203579799
1.5,0.0272302800814228
1.5001,0.0252978962114418
1.5002,0.00726231332473002
1.5003,-0.00529818200930842
1.5004,0.0140256569286579
1.5005,0.00726231332473002
1.5006,-0.0326736208812238
1.5007,-0.0423355405923539
1.5008,-0.000467222254635042
1.5009,-0.0339618768393539
1.501,-0.0239778931905304
1.5011,-0.0336398128497251
1.5012,-0.0313853649241187
1.5013,-0.040081092654545
1.5014,-0.0284867890243668
1.5015,-0.0291309170016435
1.5016,-0.00304373412210067
1.5017,-0.0152821655457739
1.5018,0.0124153370253119
1.5019,-0.0149601015598033
1.502,-0.0149601015598033
1.5021,0.00339754553934736
1.5022,0.0101608891581637
1.5023,0.031095047815253
1.5024,0.0195007445891346
1.5025,0.0288405999715098
1.5026,0.0346377515641293
1.5027,0.0288405999715098
1.5028,-0.0246220211660341
1.5029,-0.0342839408290468
1.503,-0.04265760458373
1.5031,-0.00916294982288502
1.5032,-0.0320294929025433
1.5033,-0.0104512057627
1.5034,-0.0178586774357727
1.5035,-0.0101291417776543
1.5036,-0.0204351893297572
1.5037,-0.00884088583808445
1.5038,-0.0242999571782507
1.5039,-0.0307412369459497
1.504,-0.040081092654545
1.5041,-0.0294529809903773
1.5042,-0.0484547564396976
1.5043,-0.0445899885333586
1.5044,-0.0172145494629001
1.5045,-0.046522372485345
1.5046,-0.0548960363047354
1.5047,-0.0542519083170355
1.5048,-0.10513802019225
1.5049,-0.125750116650085
1.505,-0.104493892182798
1.5051,-0.0957981640835417
1.5052,-0.0822714760326873
1.5053,-0.0816273480333695
1.5054,-0.0925775240600765
1.5055,-0.128004564718679
1.5056,-0.097086420094932
1.5057,-0.120919156515498
1.5058,-0.0980526121042285
1.5059,-0.115122004376161
1.506,-0.128970756749209
1.5061,-0.156990325934958
1.5062,-0.150226981594952
1.5063,-0.126394244669306
1.5064,-0.120275028498826
1.5065,-0.139598869130196
1.5066,-0.106426276212026
1.5067,-0.133479652900698
1.5068,-0.142497445248582
1.5069,-0.125105988631165
1.507,-0.0825935400324512
1.5071,-0.141209189195195
1.5072,-0.139276805117427
1.5073,-0.0848479880327625
1.5074,-0.0462003084931832
1.5075,-0.0748640040573662
1.5076,-0.0774405160446102
1.5077,-0.0639138281607022
1.5078,-0.0719654280770047
1.5079,-0.0729316200698381
1.508,-0.0648800201484086
1.5081,-0.070677172087523
1.5082,-0.105782148201992
1.5083,-0.0954761000808734
1.5084,-0.0986967401107857
1.5085,-0.0442679245415904
1.5086,-0.0452341165170917
1.5087,-0.0658462121367264
1.5088,-0.0452341165170917
1.5089,-0.0735757480654048
1.509,-0.0584387402418643
1.5091,-0.0822714760326873
1.5092,-0.0767963880473833
1.5093,-0.0668124041256566
1.5094,-0.04781062845465
1.5095,-0.034606004818804
1.5096,-0.0288088530129734
1.5097,-0.0239778931905304
1.5098,-0.0529636523424354
1.5099,-0.0391149006821733
1.51,-0.0423355405923539
1.5101,-0.0342839408290468
1.5102,-0.0397590286636895
1.5103,-0.0407252206364507
1.5104,-0.0861362440344869
1.5105,-0.0832376680321893
1.5106,-0.0880686280391891
1.5107,-0.120919156515498
1.5108,-0.104493892182798
1.5109,-0.118342644450597
1.511,-0.124783924621817
1.5111,-0.11061310828437
1.5112,-0.140565061168964
1.5113,-0.114477876362163
1.5114,-0.115766132390455
1.5115,-0.103205636164768
1.5116,-0.0677785961152004
1.5117,-0.0774405160446102
1.5118,-0.0709992360847904
1.5119,-0.0507092043894439
1.512,-0.0777625800433277
1.5121,-0.0745419400592723
1.5122,-0.102883572160442
1.5123,-0.122851540567309
1.5124,-0.0925775240600765
1.5125,-0.106426276212026
1.5126,-0.091289268052688
1.5127,-0.0996629321211617
1.5128,-0.0719654280770047
1.5129,-0.0871024360365203
1.513,-0.0932216520641982
1.5131,-0.097086420094932
1.5132,-0.103849764173638
1.5133,-0.0777625800433277
1.5134,-0.0919333960562399
1.5135,-0.118664708458449
1.5136,-0.136700293018041
1.5137,-0.148294597504157
1.5138,-0.136056164993962
1.5139,-0.127038372688829
1.514,-0.139920933143042
1.5141,-0.151837301672764
1.5142,-0.161177158162877
1.5143,-0.115444068383271
1.5144,-0.0880686280391891
1.5145,-0.0948319720757516
1.5146,-0.0977305481010577
1.5147,-0.145718085387463
1.5148,-0.118020580442819
1.5149,-0.153769685768726
1.515,-0.148616661519095
1.5151,-0.164075734328534
1.5152,-0.142175381235119
1.5153,-0.12832662872878
1.5154,-0.121241220523946
1.5155,-0.102239444152007
1.5156,-0.124139796603348
1.5157,-0.136700293018041
1.5158,-0.137666485054736
1.5159,-0.117376452427487
1.516,-0.111901364309123
1.5161,-0.137988549067121
1.5162,-0.165686054423359
1.5163,-0.13863267709212
1.5164,-0.126394244669306
1.5165,-0.0951540360782767
1.5166,-0.0822714760326873
1.5167,-0.070677172087523
1.5168,-0.0787287720398975
1.5169,-0.101273252139898
1.517,-0.108680724249443
1.5171,-0.140242997155965
1.5172,-0.127360436698704
1.5173,-0.144429829330981
1.5174,-0.125428052640587
1.5175,-0.137666485054736
1.5176,-0.150549045610358
1.5177,-0.153769685768726
1.5178,-0.145718085387463
1.5179,-0.142175381235119
1.518,-0.138310613079582
1.5181,-0.147650469474517
1.5182,-0.147006341445188
1.5183,-0.137988549067121
1.5184,-0.136378229005963
1.5185,-0.108680724249443
1.5186,-0.127360436698704
1.5187,-0.134767908946719
1.5188,-0.0916113320544283
1.5189,-0.0864583080350942
1.519,-0.115444068383271
1.5191,-0.107070404222351
1.5192,-0.107714532232969
1.5193,-0.105782148201992
1.5194,-0.0793729000379587
1.5195,-0.11286755632846
1.5196,-0.12832662872878
1.5197,-0.0948319720757516
1.5198,-0.0574725482582072
1.5199,-0.0729316200698381
1.52,-0.0903230760478934
1.5201,-0.0703551080903243
1.5202,-0.0616593801917591
1.5203,-0.0458782445010871
1.5204,-0.0268764690822864
1.5205,-0.0536077803296023
1.5206,-0.0455561805090566
1.5207,-0.0207572533167865
1.5208,-0.047488564462225
1.5209,-0.0529636523424354
1.521,-0.0829156040322852
1.5211,-0.0661682761329684
1.5212,-0.0468444364775726
1.5213,-0.0880686280391891
1.5214,-0.0700330440931941
1.5215,-0.110935172290448
1.5216,-0.100629124132187
1.5217,-0.11383374834846
1.5218,-0.0964422920890934
1.5219,-0.085170052033088
1.522,-0.115122004376161
1.5221,-0.118020580442819
1.5222,-0.115122004376161
1.5223,-0.103205636164768
1.5224,-0.143785701303205
1.5225,-0.107714532232969
1.5226,-0.121241220523946
1.5227,-0.137344421042428
1.5228,-0.109968980272434
1.5229,-0.111901364309123
1.523,-0.144107765317054
1.5231,-0.14668427743064
1.5232,-0.15827858200366
1.5233,-0.15956683807363
1.5234,-0.182433383529091
1.5235,-0.177602423187594
1.5236,-0.155380005850857
1.5237,-0.14636221341617
1.5238,-0.12220741254974
1.5239,-0.150871109625842
1.524,-0.150871109625842
1.5241,-0.165041926385189
1.5242,-0.147006341445188
1.5243,-0.128648692738956
1.5244,-0.155702069867519
1.5245,-0.134123780923556
1.5246,-0.136700293018041
1.5247,-0.144429829330981
1.5248,-0.157312389952015
1.5249,-0.155702069867519
1.525,-0.137988549067121
1.5251,-0.130259012790974
1.5252,-0.167296374520186
1.5253,-0.154413813801342
1.5254,-0.147328405459813
1.5255,-0.114477876362163
1.5256,-0.118664708458449
1.5257,-0.0957981640835417
1.5258,-0.133801716912089
1.5259,-0.120919156515498
1.526,-0.162143350217378
1.5261,-0.153769685768726
1.5262,-0.119630900482451
1.5263,-0.106104212206972
1.5264,-0.111579300302824
1.5265,-0.0719654280770047
1.5266,-0.0603711242109928
1.5267,-0.0590828682313048
1.5268,-0.0532857163359856
1.5269,-0.0513533323756811
1.527,-0.0275205970589282
1.5271,-0.0371825167391795
1.5272,-0.031707428913299
1.5273,-0.0619814441871195
1.5274,-0.0523195243555344
1.5275,-0.0259102771177989
1.5276,0.000821033677652083
1.5277,0.0140256569286579
1.5278,0.00210928960897873
1.5279,0.00951676119559177
1.528,0.00436373748649664
1.5281,-0.0191469333822655
1.5282,-0.0336398128497251
1.5283,-0.0510312683825294
1.5284,-0.0542519083170355
1.5285,-0.0574725482582072
1.5286,-0.0391149006821733
1.5287,-0.0584387402418643
1.5288,-0.0703551080903243
1.5289,-0.0871024360365203
1.529,-0.0719654280770047
1.5291,-0.0758301960520631
1.5292,-0.0755081320537617
1.5293,-0.0703551080903243
1.5294,-0.0445899885333586
1.5295,-0.0291309170016435
1.5296,-0.0185028054088944
1.5297,-0.0291309170016435
1.5298,-0.0185028054088944
1.5299,-0.030419172956961
1.53,-0.0117394617034971
1.5301,-0.0049761180252396
1.5302,0.00919469721421736
1.5303,0.0252978962114418
1.5304,0.0410790310902284
1.5305,0.0333494956562332
1.5306,0.0478423745688797
1.5307,0.0446217348201535
1.5308,0.0529953981555478
1.5309,0.0246537682543251
1.531,0.0352818795177414
1.5311,0.0810149636713189
1.5312,0.0781163879464278
1.5313,0.0420452230172317
1.5314,0.0497747584155029
1.5315,0.0281964720156452
1.5316,0.0223993204026143
1.5317,-0.0204351893297572
1.5318,-0.0230117012277474
1.5319,-0.0297750449791748
1.532,-0.031707428913299
1.5321,-0.0519974603621836
1.5322,-0.0900010120464373
1.5323,-0.0755081320537617
1.5324,-0.0758301960520631
1.5325,-0.0745419400592723
1.5326,-0.104815956187488
1.5327,-0.119630900482451
1.5328,-0.104493892182798
1.5329,-0.11383374834846
1.533,-0.118342644450597
1.5331,-0.119630900482451
1.5332,-0.0951540360782767
1.5333,-0.0887127560413218
1.5334,-0.135412036970188
1.5335,-0.137022357030196
1.5336,-0.137666485054736
1.5337,-0.120597092507125
1.5338,-0.128970756749209
1.5339,-0.124783924621817
1.534,-0.131869332844886
1.5341,-0.175670039056137
1.5342,-0.216894234508559
1.5343,-0.221725195004046
1.5344,-0.179212743299383
1.5345,-0.148616661519095
1.5346,-0.127682500708654
1.5347,-0.131869332844886
1.5348,-0.134123780923556
1.5349,-0.143141573275738
1.535,-0.15602413388426
1.5351,-0.144751893344985
1.5352,-0.154091749784995
1.5353,-0.153125557736425
1.5354,-0.130259012790974
1.5355,-0.116410260405045
1.5356,-0.119308836474376
1.5357,-0.11383374834846
1.5358,-0.0925775240600765
1.5359,-0.0719654280770047
1.536,-0.0938657800686052
1.5361,-0.0877465640382288
1.5362,-0.0861362440344869
1.5363,-0.0832376680321893
1.5364,-0.070677172087523
1.5365,-0.0684227241085709
1.5366,-0.0719654280770047
1.5367,-0.046522372485345
1.5368,-0.0449120525251924
1.5369,-0.0455561805090566
1.537,-0.040081092654545
1.5371,-0.0352501327985114
1.5372,-0.0223675732528732
1.5373,-0.034606004818804
1.5374,-0.0690668521022148
1.5375,-0.0764743240488739
1.5376,-0.0922554600581226
1.5377,-0.0916113320544283
1.5378,-0.109968980272434
1.5379,-0.0719654280770047
1.538,-0.0774405160446102
1.5381,-0.0648800201484086
1.5382,-0.0629476361736062
1.5383,-0.0442679245415904
1.5384,-0.0668124041256566
1.5385,-0.0542519083170355
1.5386,-0.073253684067587
1.5387,-0.067134468122103
1.5388,-0.0423355405923539
1.5389,-0.0510312683825294
1.539,-0.0362163247685553
1.5391,-0.030097108968036
1.5392,0.00597405739722052
1.5393,-0.00111135022113956
1.5394,-0.0365383887586988
1.5395,-0.0416914126097972
1.5396,-0.0191469333822655
1.5397,0.00307548155684488
1.5398,-0.0423355405923539
1.5399,-0.0387928366915125
1.54,-0.0871024360365203
1.5401,-0.0697109800961325
1.5402,-0.0536077803296023
1.5403,-0.0864583080350942
1.5404,-0.0861362440344869
1.5405,-0.0742198760612474
1.5406,-0.0600490602159698
1.5407,-0.0519974603621836
1.5408,-0.0655241481405524
1.5409,-0.0716433640795312
1.541,-0.0674565321186176
1.5411,-0.0957981640835417
1.5412,-0.11061310828437
1.5413,-0.119630900482451
1.5414,-0.115122004376161
1.5415,-0.101595316143862
1.5416,-0.144107765317054
1.5417,-0.14893872553411
1.5418,-0.15956683807363
1.5419,-0.150871109625842
1.542,-0.145396021373226
1.5421,-0.125105988631165
1.5422,-0.140887125182041
1.5423,-0.148294597504157
1.5424,-0.145073957359067
1.5425,-0.124139796603348
1.5426,-0.15634619790108
1.5427,-0.136378229005963
1.5428,-0.139920933143042
1.5429,-0.108358660243879
1.543,-0.120919156515498
1.5431,-0.115766132390455
1.5432,-0.12220741254974
1.5433,-0.0951540360782767
1.5434,-0.131225204823094
1.5435,-0.180500999390283
1.5436,-0.164075734328534
1.5437,-0.16021096610909
1.5438,-0.158922710038486
1.5439,-0.107070404222351
1.544,-0.140887125182041
1.5441,-0.12961488476994
1.5442,-0.133479652900698
1.5443,-0.145396021373226
1.5444,-0.119630900482451
1.5445,-0.111901364309123
1.5446,-0.119952964490601
1.5447,-0.109324852260792
1.5448,-0.107392468227623
1.5449,-0.077118452045962
1.545,-0.042013476601043
1.5451,-0.0536077803296023
1.5452,-0.0436237965582501
1.5453,-0.0230117012277474
1.5454,0.00178722562623698
1.5455,0.0513850782861997
1.5456,0.0713530445723193
1.5457,0.0665220850054882
1.5458,0.0388245832586206
1.5459,0.0394687112107852
1.546,0.0497747584155029
1.5461,0.0117712090635633
1.5462,0.00661818536109393
1.5463,0.0256199601899144
1.5464,0.0195007445891346
1.5465,0.0430114149437393
1.5466,0.0494526944412013
1.5467,0.0700647886889704
1.5468,0.0462320546951987
1.5469,0.0562160378902173
1.547,0.0391466472347306
1.5471,0.0504188863639438
1.5472,0.0233655123394056
1.5473,0.0166021687709745
1.5474,0.0365701354242953
1.5475,0.0436555428944696
1.5476,0.033027431679119
1.5477,0.0452658627703356
1.5478,0.0291626639493571
1.5479,0.0140256569286579
1.548,0.0343156875872393
1.5481,0.0233655123394056
1.5482,-0.00658643794619171
1.5483,0.0185345526502694
1.5484,0.00307548155684488
1.5485,-0.0217234452782504
1.5486,-0.0523195243555344
1.5487,-0.049098884425009
1.5488,-0.0532857163359856
1.5489,-0.0532857163359856
1.549,-0.04781062845465
1.5491,-0.0455561805090566
1.5492,-0.0410472846275012
1.5493,-0.0664903401292784
1.5494,-0.0751860680555294
1.5495,-0.0803390920355731
1.5496,-0.0835597320321635
1.5497,-0.0835597320321635
1.5498,-0.108036596238387
1.5499,-0.111901364309123
1.55,-0.133157588889384
1.5501,-0.0996629321211617
1.5502,-0.0764743240488739
1.5503,-0.12220741254974
1.5504,-0.150226981594952
1.5505,-0.123817732594226
1.5506,-0.114155812355274
1.5507,-0.0919333960562399
1.5508,-0.0941878440709159
1.5509,-0.118986772466375
1.551,-0.135412036970188
1.5511,-0.14893872553411
1.5512,-0.158922710038486
1.5513,-0.177924487209789
1.5514,-0.152159365688562
1.5515,-0.173415590906467
1.5516,-0.165686054423359
1.5517,-0.161177158162877
1.5518,-0.186298151815578
1.5519,-0.172127334822724
1.552,-0.188230535963275
1.5521,-0.166330182461849
1.5522,-0.165686054423359
1.5523,-0.171161142760765
1.5524,-0.142175381235119
1.5525,-0.196604200637834
1.5526,-0.19724832869206
1.5527,-0.185976087791251
1.5528,-0.190162920113951
1.5529,-0.164719862366224
1.553,-0.157956517986366
1.5531,-0.160855094144868
1.5532,-0.18855259998818
1.5533,-0.174381782970124
1.5534,-0.170517014719863
1.5535,-0.142497445248582
1.5536,-0.100629124132187
1.5537,-0.102883572160442
1.5538,-0.0726095560721581
1.5539,-0.0642358921565365
1.554,-0.0697109800961325
1.5541,-0.0603711242109928
1.5542,-0.0468444364775726
1.5543,-0.0168924854765571
1.5544,-0.0468444364775726
1.5545,-0.0577946122526925
1.5546,-0.0391149006821733
1.5547,-0.00884088583808445
1.5548,-0.00465405404123152
1.5549,-0.00272167013845613
1.555,0.0211110644860883
1.5551,0.0301288558825593
1.5552,0.0391466472347306
1.5553,0.0368921994007944
1.5554,0.033027431679119
1.5555,0.0375363273536255
1.5556,0.0426893509682918
1.5557,0.0304509198601803
1.5558,0.0207890005068129
1.5559,-0.0136718456165399
1.556,-0.0252661491417902
1.5561,-0.0494209484177637
1.5562,-0.0217234452782504
1.5563,-0.0191469333822655
1.5564,-0.0481326924471408
1.5565,-0.0323515568918515
1.5566,-0.062625572178043
1.5567,-0.0864583080350942
1.5568,-0.116088196397713
1.5569,-0.0829156040322852
1.557,-0.0916113320544283
1.5571,-0.124461860612545
1.5572,-0.150226981594952
1.5573,-0.149904917579624
1.5574,-0.146040149401778
1.5575,-0.11254549232194
1.5576,-0.105460084197084
1.5577,-0.1344458449351
1.5578,-0.105460084197084
1.5579,-0.102561508156188
1.558,-0.0819494120329934
1.5581,-0.110291044278366
1.5582,-0.0977305481010577
1.5583,-0.0845259240325073
1.5584,-0.040081092654545
1.5585,-0.0201131253427905
1.5586,-0.00465405404123152
1.5587,-0.0230117012277474
1.5588,-0.0310633009350022
1.5589,-0.0242999571782507
1.559,-0.0265544050940606
1.5591,-0.0104512057627
1.5592,0.00275341757428264
1.5593,-0.0458782445010871
1.5594,-0.0294529809903773
1.5595,-0.0378266447199186
1.5596,-0.0632697001692371
1.5597,-0.0639138281607022
1.5598,-0.062625572178043
1.5599,-0.0635917641649358
1.56,-0.085170052033088
1.5601,-0.0861362440344869
1.5602,-0.0986967401107857
1.5603,-0.0623035081825474
1.5604,-0.0581166762472449
1.5605,-0.0623035081825474
1.5606,-0.104493892182798
1.5607,-0.0993408681176309
1.5608,-0.100629124132187
1.5609,-0.102561508156188
1.561,-0.115444068383271
1.5611,-0.131869332844886
1.5612,-0.147006341445188
1.5613,-0.139920933143042
1.5614,-0.167940502559478
1.5615,-0.164397798347339
1.5616,-0.174381782970124
1.5617,-0.170194950699533
1.5618,-0.147972533489298
1.5619,-0.121563284532469
1.562,-0.144751893344985
1.5621,-0.136378229005963
1.5622,-0.136056164993962
1.5623,-0.131225204823094
1.5624,-0.161499222180964
1.5625,-0.136700293018041
1.5626,-0.163753670309808
1.5627,-0.169228758639027
1.5628,-0.175025911012968
1.5629,-0.135412036970188
1.563,-0.133479652900698
1.5631,-0.109646916266577
1.5632,-0.104493892182798
1.5633,-0.0867803720357719
1.5634,-0.0890348200424944
1.5635,-0.103205636164768
1.5636,-0.100307060128439
1.5637,-0.0845259240325073
1.5638,-0.0819494120329934
1.5639,-0.0832376680321893
1.564,-0.120275028498826
1.5641,-0.110935172290448
1.5642,-0.119308836474376
1.5643,-0.137344421042428
1.5644,-0.132835524878145
1.5645,-0.0990188041141723
1.5646,-0.108036596238387
1.5647,-0.115444068383271
1.5648,-0.11061310828437
1.5649,-0.123495668585179
1.565,-0.124139796603348
1.5651,-0.0874245000373392
1.5652,-0.0880686280391891
1.5653,-0.0829156040322852
1.5654,-0.073253684067587
1.5655,-0.121563284532469
1.5656,-0.136378229005963
1.5657,-0.137988549067121
1.5658,-0.0967643560919768
1.5659,-0.0764743240488739
1.566,-0.10513802019225
1.5661,-0.0793729000379587
1.5662,-0.0999849961247645
1.5663,-0.119630900482451
1.5664,-0.100307060128439
1.5665,-0.0793729000379587
1.5666,-0.0687447881053586
1.5667,-0.10513802019225
1.5668,-0.109968980272434
1.5669,-0.0980526121042285
1.567,-0.124139796603348
1.5671,-0.0951540360782767
1.5672,-0.111579300302824
1.5673,-0.0825935400324512
1.5674,-0.0777625800433277
1.5675,-0.0635917641649358
1.5676,-0.114155812355274
1.5677,-0.118342644450597
1.5678,-0.093543716066366
1.5679,-0.0616593801917591
1.568,-0.0742198760612474
1.5681,-0.0925775240600765
1.5682,-0.100951188136006
1.5683,-0.114799940369125
1.5684,-0.136700293018041
1.5685,-0.149582853564375
1.5686,-0.131869332844886
1.5687,-0.117376452427487
1.5688,-0.130903140812311
1.5689,-0.114477876362163
1.569,-0.0906451400494206
1.5691,-0.119630900482451
1.5692,-0.12961488476994
1.5693,-0.135412036970188
1.5694,-0.118986772466375
1.5695,-0.118986772466375
1.5696,-0.117698516435116
1.5697,-0.134767908946719
1.5698,-0.15602413388426
1.5699,-0.126394244669306
1.57,-0.107070404222351
1.5701,-0.140565061168964
1.5702,-0.122529476558487
1.5703,-0.118664708458449
1.5704,-0.0906451400494206
1.5705,-0.134123780923556
1.5706,-0.144107765317054
1.5707,-0.107070404222351
1.5708,-0.0986967401107857
1.5709,-0.106748340217152
1.571,-0.0948319720757516
1.5711,-0.0735757480654048
1.5712,-0.0874245000373392
1.5713,-0.0404031566454654
1.5714,-0.0610152522012411
1.5715,-0.0867803720357719
1.5716,-0.0854921160334839
1.5717,-0.0561842922809362
1.5718,-0.0664903401292784
1.5719,-0.0449120525251924
1.572,-0.0594049322261258
1.5721,-0.0874245000373392
1.5722,-0.128970756749209
1.5723,-0.110291044278366
1.5724,-0.128970756749209
1.5725,-0.137988549067121
1.5726,-0.111579300302824
1.5727,-0.133801716912089
1.5728,-0.138954741104735
1.5729,-0.113189620335053
1.573,-0.103527700169167
1.5731,-0.122529476558487
1.5732,-0.128970756749209
1.5733,-0.134123780923556
1.5734,-0.115444068383271
1.5735,-0.119308836474376
1.5736,-0.118020580442819
1.5737,-0.119630900482451
1.5738,-0.110291044278366
1.5739,-0.100629124132187
1.574,-0.0999849961247645
1.5741,-0.0832376680321893
1.5742,-0.085170052033088
1.5743,-0.111257236296599
1.5744,-0.0925775240600765
1.5745,-0.129936948780419
1.5746,-0.123173604576207
1.5747,-0.136700293018041
1.5748,-0.145718085387463
1.5749,-0.115444068383271
1.575,-0.120597092507125
1.5751,-0.127682500708654
1.5752,-0.121563284532469
1.5753,-0.12961488476994
1.5754,-0.124461860612545
1.5755,-0.145718085387463
1.5756,-0.0903230760478934
1.5757,-0.103527700169167
1.5758,-0.124139796603348
1.5759,-0.0922554600581226
1.576,-0.0687447881053586
1.5761,-0.0803390920355731
1.5762,-0.0790508360388933
1.5763,-0.106104212206972
1.5764,-0.0806611560349174
1.5765,-0.0709992360847904
1.5766,-0.0449120525251924
1.5767,-0.0619814441871195
1.5768,-0.0561842922809362
1.5769,-0.0487768204323203
1.577,-0.042013476601043
1.5771,-0.0339618768393539
1.5772,-0.0404031566454654
1.5773,-0.0246220211660341
1.5774,-0.0197910613558863
1.5775,-0.0462003084931832
1.5776,-0.0584387402418643
1.5777,-0.0323515568918515
1.5778,-0.0813052840338156
1.5779,-0.0842038600323225
1.578,-0.0916113320544283
1.5781,-0.0481326924471408
1.5782,-0.0362163247685553
1.5783,-0.0168924854765571
1.5784,-0.0110953337329756
1.5785,0.0133815289674951
1.5786,-0.00658643794619171
1.5787,-0.0204351893297572
1.5788,-0.0387928366915125
1.5789,-0.0320294929025433
1.579,0.0040416735041732
1.5791,-0.0226896372402789
1.5792,-0.0168924854765571
1.5793,-0.0587608042365509
1.5794,-0.0497430124105846
1.5795,-0.0458782445010871
1.5796,-0.0281647250358238
1.5797,-0.0590828682313048
1.5798,-0.0941878440709159
1.5799,-0.0558622282867858
1.58,-0.0519974603621836
1.5801,-0.0410472846275012
1.5802,-0.0652020841444465
1.5803,-0.0565063562751535
1.5804,-0.0336398128497251
1.5805,-0.0681006601118515
1.5806,-0.0796949640370937
1.5807,-0.077118452045962
1.5808,-0.0558622282867858
1.5809,-0.101595316143862
1.581,-0.12832662872878
1.5811,-0.154091749784995
1.5812,-0.148294597504157
1.5813,-0.135734100982036
1.5814,-0.116088196397713
1.5815,-0.109324852260792
1.5816,-0.115444068383271
1.5817,-0.110935172290448
1.5818,-0.0877465640382288
1.5819,-0.0800170280362985
1.582,-0.0916113320544283
1.5821,-0.109324852260792
1.5822,-0.131225204823094
1.5823,-0.140242997155965
1.5824,-0.127360436698704
1.5825,-0.101917380147898
1.5826,-0.0986967401107857
1.5827,-0.0986967401107857
1.5828,-0.0800170280362985
1.5829,-0.0825935400324512
1.583,-0.0887127560413218
1.5831,-0.094509908073298
1.5832,-0.111257236296599
1.5833,-0.107714532232969
1.5834,-0.104171828178182
1.5835,-0.128004564718679
1.5836,-0.0990188041141723
1.5837,-0.0883906920402201
1.5838,-0.0874245000373392
1.5839,-0.101595316143862
1.584,-0.0909672040510187
1.5841,-0.0980526121042285
1.5842,-0.0880686280391891
1.5843,-0.0552181002986854
1.5844,-0.0413693486186166
1.5845,-0.0188248693955487
1.5846,-0.0242999571782507
1.5847,-0.0407252206364507
1.5848,-0.0648800201484086
1.5849,-0.047488564462225
1.585,-0.0555401642927022
1.5851,-0.0668124041256566
1.5852,-0.062625572178043
1.5853,-0.0761522600504339
1.5854,-0.117698516435116
1.5855,-0.130259012790974
1.5856,-0.133801716912089
1.5857,-0.114799940369125
1.5858,-0.123173604576207
1.5859,-0.128970756749209
1.586,-0.108036596238387
1.5861,-0.109324852260792
1.5862,-0.125750116650085
1.5863,-0.139920933143042
1.5864,-0.0996629321211617
1.5865,-0.124139796603348
1.5866,-0.103527700169167
1.5867,-0.11286755632846
1.5868,-0.125428052640587
1.5869,-0.120275028498826
1.587,-0.107392468227623
1.5871,-0.141853317221734
1.5872,-0.116088196397713
1.5873,-0.111257236296599
1.5874,-0.127360436698704
1.5875,-0.124783924621817
1.5876,-0.108680724249443
1.5877,-0.0777625800433277
1.5878,-0.0793729000379587
1.5879,-0.0687447881053586
1.588,-0.0587608042365509
1.5881,-0.0816273480333695
1.5882,-0.0819494120329934
1.5883,-0.0664903401292784
1.5884,-0.0349280688086255
1.5885,-0.0442679245415904
1.5886,-0.030097108968036
1.5887,-0.0123835896742648
1.5888,-0.0230117012277474
1.5889,-0.015926293517901
1.589,-0.0368604527489069
1.5891,-0.0239778931905304
1.5892,-0.0223675732528732
1.5893,-0.0336398128497251
1.5894,-0.0278426610473442
1.5895,-0.0120615256888502
1.5896,0.000176905711628737
1.5897,-0.0871024360365203
1.5898,-0.0661682761329684
1.5899,-0.057150484263789
1.59,-0.0677785961152004
1.5901,-0.0484547564396976
1.5902,-0.0333177488601606
1.5903,-0.0436237965582501
1.5904,-0.0349280688086255
1.5905,-0.0738978120632916
1.5906,-0.0948319720757516
1.5907,-0.0980526121042285
1.5908,-0.0681006601118515
1.5909,-0.0990188041141723
1.591,-0.129936948780419
1.5911,-0.136378229005963
1.5912,-0.124139796603348
1.5913,-0.0825935400324512
1.5914,-0.117698516435116
1.5915,-0.0664903401292784
1.5916,-0.0700330440931941
1.5917,-0.077118452045962
1.5918,-0.0784067080409714
1.5919,-0.0838817960322079
1.592,-0.0809832200343316
1.5921,-0.0983746761074711
1.5922,-0.113511684341719
1.5923,-0.122529476558487
1.5924,-0.127360436698704
1.5925,-0.113511684341719
1.5926,-0.109646916266577
1.5927,-0.116410260405045
1.5928,-0.128970756749209
1.5929,-0.114477876362163
1.593,-0.103849764173638
1.5931,-0.109324852260792
1.5932,-0.131547268833952
1.5933,-0.115766132390455
1.5934,-0.11254549232194
1.5935,-0.114799940369125
1.5936,-0.129936948780419
1.5937,-0.128004564718679
1.5938,-0.121563284532469
1.5939,-0.12220741254974
1.594,-0.123495668585179
1.5941,-0.146040149401778
1.5942,-0.13863267709212
1.5943,-0.155702069867519
1.5944,-0.172449398843538
1.5945,-0.166008118442564
1.5946,-0.133479652900698
1.5947,-0.134767908946719
1.5948,-0.154091749784995
1.5949,-0.171483206781337
1.595,-0.179856871344669
1.5951,-0.174059718948824
1.5952,-0.14668427743064
1.5953,-0.149582853564375
1.5954,-0.143785701303205
1.5955,-0.161177158162877
1.5956,-0.158922710038486
1.5957,-0.184365767670853
1.5958,-0.159244774056018
1.5959,-0.162465414235705
1.596,-0.130259012790974
1.5961,-0.108680724249443
1.5962,-0.138310613079582
1.5963,-0.157312389952015
1.5964,-0.147972533489298
1.5965,-0.160855094144868
1.5966,-0.157634453969151
1.5967,-0.151837301672764
1.5968,-0.129292820759536
1.5969,-0.136378229005963
1.597,-0.141531253208426
1.5971,-0.115444068383271
1.5972,-0.147006341445188
1.5973,-0.109968980272434
1.5974,-0.103849764173638
1.5975,-0.0790508360388933
1.5976,-0.0548960363047354
1.5977,-0.00755262989949372
1.5978,-0.0136718456165399
1.5979,0.011449145082601
1.598,0.0217551924444663
1.5981,0.00565199341519472
1.5982,0.0233655123394056
1.5983,0.0352818795177414
1.5984,0.0442996708449804
1.5985,0.0684544688336208
1.5986,0.0594366776195501
1.5987,0.03592600747113
1.5988,0.0243317042756811
1.5989,0.0327053677019486
1.599,0.0278744080376279
1.5991,0.0365701354242953
1.5992,0.0111270811015799
1.5993,0.0674882769197885
1.5994,0.0378583913299576
1.5995,0.0500968223897504
1.5996,0.0587925496741087
1.5997,0.0610469974822274
1.5998,0.0639455732317243
1.5999,0.0591146136468559
1.6,0.0536931222495431
1.6001,0.0424208831298928
1.6002,0.0591682097980313
1.6003,0.0707625127913586
1.6004,0.0565916980124347
1.6005,0.036945795533184
1.6006,0.0308265799647996
1.6007,0.0459635868604229
1.6008,0.0646432973311412
1.6009,0.0733390245584701
1.601,0.0437091390326742
1.6011,0.0411326272262278
1.6012,0.0221308525429224
1.6013,-9.15621724425671e-05
1.6014,-0.00685490583790251
1.6015,-0.0303655768871007
1.6016,-0.0242463611023563
1.6017,-0.0297214489086761
1.6018,-0.043892264493614
1.6019,-0.0310097048657812
1.602,-0.0213477852123048
1.6021,-0.0223139771750878
1.6022,-0.033908280773019
1.6023,-0.0680470640806899
1.6024,-0.0667588080931283
1.6025,-0.0835061360176454
1.6026,-0.0915577360487556
1.6027,-0.105728552212181
1.6028,-0.124086200634642
1.6029,-0.117000792443006
1.603,-0.109271256275005
1.6031,-0.104762360196583
1.6032,-0.134714312990521
1.6033,-0.115712536412044
1.6034,-0.129239224796869
1.6035,-0.154360217868818
1.6036,-0.140833529233139
1.6037,-0.132459864908114
1.6038,-0.151783705737094
1.6039,-0.145986553459074
1.604,-0.109271256275005
1.6041,-0.107983000251134
1.6042,-0.119899368517027
1.6043,-0.139223209166598
1.6044,-0.153071961802326
1.6045,-0.101863784153724
1.6046,-0.0851164560203294
1.6047,-0.079319304018889
1.6048,-0.0696573840666839
1.6049,-0.0802854960175509
1.605,-0.0992872721205636
1.6051,-0.123120008606375
1.6052,-0.113136024353682
1.6053,-0.123442072615722
1.6054,-0.140511465219677
1.6055,-0.0899474160389858
1.6056,-0.118933176491682
1.6057,-0.100575528136564
1.6058,-0.0864047120237465
1.6059,-0.115068408397009
1.606,-0.144698297400727
1.6061,-0.153071961802326
1.6062,-0.159835306165522
1.6063,-0.139867337192983
1.6064,-0.14405416937202
1.6065,-0.165954522524349
1.6066,-0.157580858040576
1.6067,-0.148241001564182
1.6068,-0.165954522524349
1.6069,-0.142121785287762
1.607,-0.145986553459074
1.6071,-0.132459864908114
1.6072,-0.157902922058187
1.6073,-0.175616443150038
1.6074,-0.164022138407916
1.6075,-0.190109324226355
1.6076,-0.186566619947832
1.6077,-0.184956299824545
1.6078,-0.201703629208541
1.6079,-0.195262348649463
1.608,-0.19622854073118
1.6081,-0.207500781740634
1.6082,-0.240995441363075
1.6083,-0.23197764829458
1.6084,-0.2351982886682
1.6085,-0.25709864344583
1.6086,-0.290915368567997
1.6087,-0.312815724443099
1.6088,-0.284152023460922
1.6089,-0.261607540069676
1.609,-0.267404692898217
1.6091,-0.283185831306179
1.6092,-0.263217860296833
1.6093,-0.234232096555186
1.6094,-0.209111101893332
1.6095,-0.206856653680152
1.6096,-0.154038153852077
1.6097,-0.134392248978519
1.6098,-0.137612889101985
1.6099,-0.116678728435154
1.61,-0.0941342480680992
1.6101,-0.0574189522158622
1.6102,-0.00299013802578895
1.6103,-0.000413626155905841
1.6104,0.052726930327611
1.6105,0.115851468254682
1.6106,0.151922631965539
1.6107,0.213758911415574
1.6108,0.259169928308585
1.6109,0.300716177296055
1.611,0.380910098696419
1.6111,0.40538695803354
1.6112,0.425676986116893
1.6113,0.401844254712966
1.6114,0.324870973028882
1.6115,0.294274898411695
1.6116,0.1954012660994
1.6117,0.156431527391189
1.6118,0.0962055663494152
1.6119,0.0172998928459854
1.612,-0.0512997363269928
1.6121,-0.166276586544035
1.6122,-0.21458619042852
1.6123,-0.282219639152286
1.6124,-0.288016792088409
1.6125,-0.310883340083136
1.6126,-0.322799710359275
1.6127,-0.360481206459441
1.6128,-0.342445618409147
1.6129,-0.356616437564378
1.613,-0.329240991646017
1.6131,-0.314103980685034
1.6132,-0.28737266398288
1.6133,-0.284474087512692
1.6134,-0.264184052434231
1.6135,-0.243571953681185
1.6136,-0.268370885039214
1.6137,-0.343411810617995
1.6138,-0.35210754053892
1.6139,-0.386568396895035
1.614,-0.422317510856706
1.6141,-0.462897587826749
1.6142,-0.461287267277482
1.6143,-0.51346165457402
1.6144,-0.536006143893802
1.6145,-0.563059531885966
1.6146,-0.547600452924128
1.6147,-0.580773060226064
1.6148,-0.564991916776854
1.6149,-0.518292616520299
1.615,-0.487052396416498
1.6151,-0.515716103478857
1.6152,-0.481255242294569
1.6153,-0.449048831197333
1.6154,-0.408468754838113
1.6155,-0.342123554339734
1.6156,-0.296712521550363
1.6157,-0.230367328111081
1.6158,-0.14405416937202
1.6159,-0.0725559600458048
1.616,-0.00202394607412869
1.6161,0.126801643011638
1.6162,0.143548969010242
1.6163,0.184773155598971
1.6164,0.231150364769145
1.6165,0.310056031661297
1.6166,0.36158626231929
1.6167,0.412150300732612
1.6168,0.449509717470864
1.6169,0.481716111140942
1.617,0.500073755519745
1.6171,0.525838870438042
1.6172,0.498785499773966
1.6173,0.522618231072638
1.6174,0.533890468852918
1.6175,0.508769481803806
1.6176,0.543230323017265
1.6177,0.53260221310639
1.6178,0.501362011265521
1.6179,0.461426083134022
1.618,0.460137827387007
1.6181,0.442424310856403
1.6182,0.440169863296555
1.6183,0.439203671485082
1.6184,0.36673928535877
1.6185,0.321328269662605
1.6186,0.244032922747343
1.6187,0.156109463432485
1.6188,0.0952393744478262
1.6189,0.0346913476945615
1.619,-0.0432481365097499
1.6191,-0.0951004400765342
1.6192,-0.146952745503652
1.6193,-0.201703629208541
1.6194,-0.210399358017029
1.6195,-0.24550433792353
1.6196,-0.245182273882914
1.6197,-0.311205404142885
1.6198,-0.302831738621062
1.6199,-0.326986543191127
1.62,-0.318290813482175
1.6201,-0.402349537127114
1.6202,-0.421995446760929
1.6203,-0.44582819015114
1.6204,-0.55082109435039
1.6205,-0.616844246433987
1.6206,-0.663865616711363
1.6207,-0.719904787941154
1.6208,-0.781741119986099
1.6209,-0.79784433237897
1.621,-0.79945465363967
1.6211,-0.758230430584209
1.6212,-0.745669925619232
1.6213,-0.68705423876277
1.6214,-0.629082684992368
1.6215,-0.602673423082628
1.6216,-0.535039951481934
1.6217,-0.479644921711951
1.6218,-0.431335305583736
1.6219,-0.40557017802273
1.622,-0.354684053122424
1.6221,-0.340191169925385
1.6222,-0.321833518169693
1.6223,-0.318290813482175
1.6224,-0.288660920194318
1.6225,-0.256132451314479
1.6226,-0.202347757266305
1.6227,-0.174650251084188
1.6228,-0.127950968754497
1.6229,-0.0983210801093219
1.623,0.0121468691548038
1.6231,0.0556255060919539
1.6232,0.140972457325864
1.6233,0.17575536483885
1.6234,0.247897690131026
1.6235,0.336465274937178
1.6236,0.395725039883074
1.6237,0.435016840301237
1.6238,0.457883379829537
1.6239,0.454662740461274
1.624,0.467223233994671
1.6241,0.524550614691847
1.6242,0.553536368996652
1.6243,0.627289010799685
1.6244,0.661749852409824
1.6245,0.695566566353648
1.6246,0.734858367643226
1.6247,0.796050518050592
1.6248,0.835986448463316
1.6249,0.845004239284656
1.625,0.826002465805022
1.6251,0.843393919492779
1.6252,0.813764035500748
1.6253,0.778981128609192
1.6254,0.762877931109014
1.6255,0.718755170346871
1.6256,0.672700026423344
1.6257,0.632119969892383
1.6258,0.58284418728982
1.6259,0.541620003333482
1.626,0.512956312977793
1.6261,0.41150617285672
1.6262,0.376723267486094
1.6263,0.286867427682334
1.6264,0.169958213619745
1.6265,0.0981379501512779
1.6266,0.0707625127913586
1.6267,-0.0348744727432562
1.6268,-0.093168056060309
1.6269,-0.140511465219677
1.627,-0.137612889101985
1.6271,-0.119577304508504
1.6272,-0.129239224796869
1.6273,-0.0967107600920285
1.6274,-0.088981224033978
1.6275,-0.112491896339832
1.6276,-0.120865560543045
1.6277,-0.0938121840654309
1.6278,-0.112169832333017
1.6279,-0.0806075600172447
1.628,-0.0912356720466591
1.6281,-0.133426056942973
1.6282,-0.127306840733766
1.6283,-0.119899368517027
1.6284,-0.178837083374841
1.6285,-0.216518574623344
1.6286,-0.212975870268536
1.6287,-0.206534589650039
1.6288,-0.232299712331545
1.6289,-0.262573732205694
1.629,-0.299289033996943
1.6291,-0.329240991646017
1.6292,-0.336326401107616
1.6293,-0.396230319455366
1.6294,-0.40685843438403
1.6295,-0.475458088210943
1.6296,-0.469660934165396
1.6297,-0.507986564401441
1.6298,-0.522479450229397
1.6299,-0.532463438389104
1.63,-0.545990132215732
1.6301,-0.549854901921184
1.6302,-0.602351358918553
1.6303,-0.547600452924128
1.6304,-0.485120011704918
1.6305,-0.4638637801577
1.6306,-0.456134241539263
1.6307,-0.424249895433706
1.6308,-0.408146690747078
1.6309,-0.390755229992646
1.631,-0.331495440105805
1.6311,-0.272235653611551
1.6312,-0.256776579401955
1.6313,-0.218128894788072
1.6314,-0.1942961565685
1.6315,-0.130205416829444
1.6316,-0.100575528136564
1.6317,-0.079963432017927
1.6318,-0.0435702005016492
1.6319,0.0108586132296599
1.632,0.0449973949345745
1.6321,0.0784920480828237
1.6322,0.134853242064306
1.6323,0.13807388167762
1.6324,0.14870199237075
1.6325,0.212148591655602
1.6326,0.240490219308384
1.6327,0.200554289357814
1.6328,0.181874580000802
1.6329,0.160940422808702
1.633,0.130022282636052
1.6331,0.102002717749771
1.6332,0.0639991693868614
1.6333,-0.0107196736588222
1.6334,-0.0477570324023212
1.6335,-0.121509688560764
1.6336,-0.20492426950075
1.6337,-0.239063057128246
1.6338,-0.284474087512692
1.6339,-0.305086187024321
1.634,-0.237774800973475
1.6341,-0.228757007929784
1.6342,-0.213297934300361
1.6343,-0.157902922058187
1.6344,-0.126018584693211
1.6345,-0.0786751760201305
1.6346,-0.0873709040270518
1.6347,-0.0313317688552176
1.6348,0.0482180346854865
1.6349,0.108443997065247
1.635,0.13936213752172
1.6351,0.161262486766787
1.6352,0.148057864451284
1.6353,0.103935101546418
1.6354,0.0701183848490633
1.6355,-0.00943141771753306
1.6356,-0.124086200634642
1.6357,-0.210077293985976
1.6358,-0.297356649661431
1.6359,-0.401061280771914
1.636,-0.459676946731111
1.6361,-0.474169831753095
1.6362,-0.552431415068266
1.6363,-0.586892279198388
1.6364,-0.614911861416266
1.6365,-0.654203691071929
1.6366,-0.648406535748395
1.6367,-0.654847819443987
1.6368,-0.657102268750574
1.6369,-0.600741038100168
1.637,-0.580773060226064
1.6371,-0.557584441386792
1.6372,-0.531175181845675
1.6373,-0.485442075823218
1.6374,-0.419418933998705
1.6375,-0.357904693861077
1.6376,-0.31345985256387
1.6377,-0.280287254847044
1.6378,-0.24808085025169
1.6379,-0.20717871771035
1.638,-0.208144909801457
1.6381,-0.215230318493116
1.6382,-0.189787260200619
1.6383,-0.159835306165522
1.6384,-0.139223209166598
1.6385,-0.122797944597102
1.6386,-0.14179972127399
1.6387,-0.127306840733766
1.6388,-0.151139577704949
1.6389,-0.175938507172151
1.639,-0.193007900461722
1.6391,-0.224570175468675
1.6392,-0.256454515358172
1.6393,-0.242605761561222
1.6394,-0.270625333371452
1.6395,-0.308306827608656
1.6396,-0.364668039445945
1.6397,-0.370465192840963
1.6398,-0.363379783140534
1.6399,-0.40975701120335
1.64,-0.403959857573561
1.6401,-0.390433165907571
1.6402,-0.431657369682752
1.6403,-0.441319292705606
1.6404,-0.417486549431691
1.6405,-0.411367331662363
1.6406,-0.394619999021923
1.6407,-0.380449179323288
1.6408,-0.321511454106697
1.6409,-0.316680493173614
1.641,-0.314748108806589
1.6411,-0.276744550296221
1.6412,-0.271591525515232
1.6413,-0.302187610506716
1.6414,-0.328274799450465
1.6415,-0.333427824503816
1.6416,-0.405892242112892
1.6417,-0.460965203167977
1.6418,-0.564347788479378
1.6419,-0.695427908018286
1.642,-0.843577457721678
1.6421,-0.967250151361603
1.6422,-1.10863641389701
1.6423,-1.24776826220038
1.6424,-1.35211717402873
1.6425,-1.46967076021176
1.6426,-1.55823855138811
1.6427,-1.58851263699231
1.6428,-1.56306952234752
1.6429,-1.53247337387627
1.643,-1.46097501442152
1.6431,-1.32506375024906
1.6432,-1.192051105447
1.6433,-1.01394948244083
1.6434,-0.775943963619391
1.6435,-0.571433199779884
1.6436,-0.396874447629499
1.6437,-0.266760564804681
1.6438,-0.11152570431961
1.6439,-0.0593513361857985
1.644,-0.0265008090203812
1.6441,-0.0297214489086761
1.6442,-0.0200595292628078
1.6443,-0.0474349684095664
1.6444,-0.0680470640806899
1.6445,-0.0429260725179161
1.6446,0.0427429471056709
1.6447,0.157075655308472
1.6448,0.276239317481448
1.6449,0.480105791458326
1.645,0.69009147931789
1.6451,0.861429501221647
1.6452,1.04178532710061
1.6453,1.19251128264753
1.6454,1.32133689995681
1.6455,1.40926039267941
1.6456,1.43116075107642
1.6457,1.39219099604427
1.6458,1.30008067208012
1.6459,1.20958067612286
1.646,1.13582801539142
1.6461,1.09428175851788
1.6462,1.08236539048996
1.6463,1.11070702271678
1.6464,1.25370344905913
1.6465,1.34613583302335
1.6466,1.58059850516045
1.6467,1.81989220999151
1.6468,2.05950806676361
1.6469,2.26917202599517
1.647,2.50331299069636
1.6471,2.74679396401653
1.6472,2.96128923452588
1.6473,3.13488234931108
1.6474,3.33134220094098
1.6475,3.45920220466063
1.6476,3.58126508165617
1.6477,3.65083128324601
1.6478,3.74294211446355
1.6479,3.79930365273248
1.648,3.79447266326489
1.6481,3.79157406962714
1.6482,3.74423037806127
1.6483,3.61153925983041
1.6484,3.48303505782928
1.6485,3.306865229092
1.6486,3.0704693092909
1.6487,2.84244724484306
1.6488,2.51587351358743
1.6489,2.17545125952447
1.649,1.84887799413279
1.6491,1.41860025134509
1.6492,1.03405579133628
1.6493,0.647901102953854
1.6494,0.261102311992535
1.6495,-0.153716089835414
1.6496,-0.572721456386675
1.6497,-1.00879645261851
1.6498,-1.48480779959275
1.6499,-1.94310609019997
1.65,-2.39850638670791
1.6501,-2.82073458082452
1.6502,-3.24682826051476
1.6503,-3.62139198530615
1.6504,-3.88355478141992
1.6505,-4.08194847995396
1.6506,-4.20079155807976
1.6507,-4.30095475411986
1.6508,-4.30804025562067
1.6509,-4.24330454771949
1.651,-4.21464048543629
1.6511,-4.0909663802445
1.6512,-4.01109356407331
1.6513,-3.89128440223208
1.6514,-3.78017113205383
1.6515,-3.64425875143659
1.6516,-3.45359508689563
1.6517,-3.27098325381243
1.6518,-3.11574720735998
1.6519,-2.91799853053788
1.652,-2.71058803271887
1.6521,-2.49222746419638
1.6522,-2.25454313932121
1.6523,-2.00043367424424
1.6524,-1.8413335480814
1.6525,-1.63231344563693
1.6526,-1.45066894555959
1.6527,-1.25453161691301
1.6528,-1.1318250526863
1.6529,-1.04261321168368
1.653,-0.944061519385745
1.6531,-0.890920907817663
1.6532,-0.803963553190457
1.6533,-0.738262448439312
1.6534,-0.639710802847058
1.6535,-0.617488374774303
1.6536,-0.588824664146824
1.6537,-0.541159170109426
1.6538,-0.513783718702916
1.6539,-0.500901153641937
1.654,-0.456134241539263
1.6541,-0.363379783140534
1.6542,-0.24614846600503
1.6543,-0.110559512300052
1.6544,0.045641522885195
1.6545,0.232760684519214
1.6546,0.469477681551217
1.6547,0.680429561035366
1.6548,0.910383223761163
1.6549,1.16223726460156
1.655,1.38091875314869
1.6551,1.55579956569153
1.6552,1.69364303145703
1.6553,1.78704165618282
1.6554,1.80250074012516
1.6555,1.84597941566005
1.6556,1.7847872064711
1.6557,1.67013234510117
1.6558,1.50652375311685
1.6559,1.34420344860714
1.656,1.24371946379706
1.6561,1.08687428648917
1.6562,0.945166132563921
1.6563,0.806034500599814
1.6564,0.698465141845887
1.6565,0.597659128434045
1.6566,0.503938522757076
1.6567,0.417625387675991
1.6568,0.365773093539189
1.6569,0.251440393562207
1.657,0.16351693447224
1.6571,0.0765596642627262
1.6572,-0.000413626155905841
1.6573,-0.126662712713337
1.6574,-0.256454515358172
1.6575,-0.338258785514682
1.6576,-0.440997228603205
1.6577,-0.579162739451696
1.6578,-0.728600521801388
1.6579,-0.870630857340492
1.658,-0.981743046810716
1.6581,-1.09961861019536
1.6582,-1.16757420615381
1.6583,-1.25066684278013
1.6584,-1.33601394540038
1.6585,-1.4094446725039
1.6586,-1.44938068696878
1.6587,-1.46033088511058
1.6588,-1.371441049119
1.6589,-1.29414555354083
1.659,-1.18754220285771
1.6591,-1.05936055978568
1.6592,-0.816846123505533
1.6593,-0.57626416206602
1.6594,-0.270947397419286
1.6595,0.0836450715941501
1.6596,0.471410065170963
1.6597,0.845970431160277
1.6598,1.17511982538448
1.6599,1.51521948453808
1.66,1.75644555359323
1.6601,1.89267873711292
1.6602,1.97931403942283
1.6603,2.04211658998861
1.6604,2.06530522580976
1.6605,2.02891195057625
1.6606,1.94710760587546
1.6607,1.85016625123599
1.6608,1.70942417752086
1.6609,1.5416287434766
1.661,1.35644188330511
1.6611,1.16320345665583
1.6612,0.965778226959873
1.6613,0.774794297251314
1.6614,0.629865522315359
1.6615,0.494598668600135
1.6616,0.355789111394715
1.6617,0.212792719559695
1.6618,0.0772037922029628
1.6619,-0.0983210801093219
1.662,-0.298322841828754
1.6621,-0.549854901921184
1.6622,-0.765637907979148
1.6623,-1.0728872643923
1.6624,-1.35694814272571
1.6625,-1.60976891118893
1.6626,-1.85775886148682
1.6627,-2.07161006997532
1.6628,-2.26839194989351
1.6629,-2.38465757022571
1.663,-2.48224343045205
1.6631,-2.4912612673673
1.6632,-2.38433550473378
1.6633,-2.23457508794649
1.6634,-2.02297823236758
1.6635,-1.72313572586039
1.6636,-1.40042686327784
1.6637,-1.02683205720115
1.6638,-0.638422546129463
1.6639,-0.291881560729573
1.664,0.0852553914387932
1.6641,0.453052420776933
1.6642,0.772861913549557
1.6643,1.04178532710061
1.6644,1.2185984689985
1.6645,1.36803618999803
1.6646,1.42149882819119
1.6647,1.39798814958443
1.6648,1.30072480019139
1.6649,1.16191520058362
1.665,0.999272880845701
1.6651,0.802491797110636
1.6652,0.624390435345708
1.6653,0.484614686569504
1.6654,0.416015067987074
1.6655,0.49298834891786
1.6656,0.658529212998391
1.6657,0.927452614117429
1.6658,1.26980665127845
1.6659,1.68430316966336
1.666,2.14485513675186
1.6661,2.56837006199396
1.6662,2.95259347784069
1.6663,3.27755727851982
1.6664,3.49978246933804
1.6665,3.59930076187437
1.6666,3.63891484932255
1.6667,3.59318151309826
1.6668,3.50686791296195
1.6669,3.405095193864
1.667,3.2437404159094
1.6671,3.08141952521372
1.6672,2.90074100722805
1.6673,2.76289720825142
1.6674,2.57255690356013
1.6675,2.39220068850292
1.6676,2.19735164325469
1.6677,2.0012144152481
1.6678,1.79670358360476
1.6679,1.56964832400241
1.668,1.33776216724609
1.6681,1.05853265471913
1.6682,0.818917058780024
1.6683,0.59572674480523
1.6684,0.414404748297899
1.6685,0.128089898861942
1.6686,-0.132459864908114
1.6687,-0.482865562880142
1.6688,-0.875139757389573
1.6689,-1.28222916575956
1.669,-1.79270174208111
1.6691,-2.32958437611881
1.6692,-2.80398714948261
1.6693,-3.32509044808686
1.6694,-3.76728843805845
1.6695,-4.14926067475209
1.6696,-4.4700406626009
1.6697,-4.75603777737089
1.6698,-4.91932689251618
1.6699,-5.01820223668882
1.67,-5.0623257817405
1.6701,-4.99630150363314
1.6702,-4.86747372363041
1.6703,-4.63880466704743
1.6704,-4.34765465554612
1.6705,-3.9331531869345
1.6706,-3.46969843038221
1.6707,-2.88257125979835
1.6708,-2.27161260360316
1.6709,-1.59495393208725
1.671,-0.926347981678948
1.6711,-0.33858084958288
1.6712,0.245643242491082
1.6713,0.744842350001899
1.6714,1.12970879918502
1.6715,1.42343121276023
1.6716,1.54098461519989
1.6717,1.51876218995735
1.6718,1.37705398418583
1.6719,1.14613406380145
1.672,0.881397466865838
1.6721,0.613440261419033
1.6722,0.348381640760574
1.6723,0.122936875456388
1.6724,-0.0825399440168799
1.6725,-0.255166259183949
1.6726,-0.401383344860551
1.6727,-0.493171614698117
1.6728,-0.558550633825141
1.6729,-0.556296184804109
1.673,-0.523767706759457
1.6731,-0.515071975219721
1.6732,-0.442607549116343
1.6733,-0.379482987078626
1.6734,-0.285118215616515
1.6735,-0.24808085025169
1.6736,-0.218450958821277
1.6737,-0.178515019351993
1.6738,-0.202991885324407
1.6739,-0.251623554712338
1.674,-0.294136009109928
1.6741,-0.388500781399376
1.6742,-0.4487267670922
1.6743,-0.535362015619099
1.6744,-0.606216128896231
1.6745,-0.684155660966106
1.6746,-0.700902999507169
1.6747,-0.69574997222236
1.6748,-0.67545992764532
1.6749,-0.647118279015926
1.675,-0.637456353592708
1.6751,-0.570467007326146
1.6752,-0.538260592859196
1.6753,-0.495748127671706
1.6754,-0.427792600501958
1.6755,-0.373685833630644
1.6756,-0.27481216600055
1.6757,-0.143087977329542
1.6758,0.0189102127464142
1.6759,0.142582777128924
1.676,0.307479520114239
1.6761,0.460781955260524
1.6762,0.545484770574773
1.6763,0.665292555764628
1.6764,0.783812087875297
1.6765,0.833409936805907
1.6766,0.883007786683385
1.6767,0.889127002000566
1.6768,0.903619880450991
1.6769,0.791541622717012
1.677,0.699753397620829
1.6771,0.54580683451158
1.6772,0.444678758415904
1.6773,0.300716177296055
1.6774,0.169314085705717
1.6775,0.11488527636181
1.6776,0.0962055663494152
1.6777,0.138718009599757
1.6778,0.224064957859113
1.6779,0.350636088345888
1.678,0.515854888406068
1.6781,0.678175113438936
1.6782,0.866582524597393
1.6783,1.00088320076003
1.6784,1.13067499121579
1.6785,1.22053085319491
1.6786,1.22536181369957
1.6787,1.20636003582636
1.6788,1.15676217630747
1.6789,1.08751841449018
1.679,1.02568212763322
1.6791,0.942911684752808
1.6792,0.843071855534528
1.6793,0.708449124111795
1.6794,0.574792588850795
1.6795,0.391216144742333
1.6796,0.178653940443627
1.6797,0.000552565794303007
1.6798,-0.130205416829444
1.6799,-0.213297934300361
1.68,-0.23197764829458
1.6801,-0.160801498220262
1.6802,0.0224529165222554
1.6803,0.237591643764593
1.6804,0.473020384853984
1.6805,0.800559413391117
1.6806,1.17093299311593
1.6807,1.55547750154757
1.6808,1.92102039597864
1.6809,2.2591880259777
1.681,2.57159070934882
1.6811,2.77642393393409
1.6812,2.93681229033087
1.6813,3.01990508155105
1.6814,3.00702247695702
1.6815,2.92747240417708
1.6816,2.85146506382956
1.6817,2.82827638688144
1.6818,2.87626406718774
1.6819,2.94937282727114
1.682,3.0195830164303
1.6821,3.11233778387853
1.6822,3.13101756655563
1.6823,3.13262789269819
1.6824,3.06757072278295
1.6825,2.90975882766222
1.6826,2.70234901341716
1.6827,2.357739777165
1.6828,1.99573932121405
1.6829,1.60185473960285
1.683,1.23373547862079
1.6831,0.875600315532095
1.6832,0.552570177185832
1.6833,0.251118329614069
1.6834,-0.0500114803534566
1.6835,-0.391399358163117
1.6836,-0.783995569697758
1.6837,-1.22232516672873
1.6838,-1.64004300059369
1.6839,-2.08674713344618
1.684,-2.53345186526976
1.6841,-2.95374787242057
1.6842,-3.36792531942569
1.6843,-3.70512945103234
1.6844,-4.04716515430353
1.6845,-4.31158300647606
1.6846,-4.52962335505405
1.6847,-4.74057846136329
1.6848,-4.92963311442747
1.6849,-5.12706180855777
1.685,-5.31708314096845
1.6851,-5.52127582759903
1.6852,-5.73577508352241
1.6853,-5.91645714695612
1.6854,-6.10068224616366
1.6855,-6.26751568938997
1.6856,-6.43177276776796
1.6857,-6.57316285779571
1.6858,-6.68170160293192
1.6859,-6.72840228005804
1.686,-6.66076682253849
1.6861,-6.52227528958864
1.6862,-6.24271610981036
1.6863,-5.83400683516158
1.6864,-5.3241686868396
1.6865,-4.72898397531127
1.6866,-4.06069200240651
1.6867,-3.33475244842629
1.6868,-2.54569036048625
1.6869,-1.72506811502945
1.687,-0.893175357911543
1.6871,-0.100253464132456
1.6872,0.616660900807548
1.6873,1.20700416388498
1.6874,1.6952533524681
1.6875,2.06659348338384
1.6876,2.31265073814634
1.6877,2.55645366699685
1.6878,2.81056281519104
1.6879,3.06435007113678
1.688,3.38383887090124
1.6881,3.67949513994662
1.6882,4.00574802108651
1.6883,4.28594580473171
1.6884,4.50881601077153
1.6885,4.6543903154262
1.6886,4.72492303491796
1.6887,4.6743584801392
1.6888,4.55905845858918
1.6889,4.37902307451455
1.689,4.15164406700453
1.6891,3.88432908209016
1.6892,3.60058902479173
1.6893,3.37095625165959
1.6894,3.14357811067772
1.6895,2.98576618043
1.6896,2.83471768588753
1.6897,2.67046459544681
1.6898,2.52199274282159
1.6899,2.36321487505599
1.69,2.18930003148016
1.6901,2.00282473703274
1.6902,1.76031032437078
1.6903,1.54098461519989
1.6904,1.33132088592528
1.6905,1.0839757104881
1.6906,0.833409936805907
1.6907,0.65402031782555
1.6908,0.418913643426944
1.6909,0.289443939241898
1.691,0.131310538484564
1.6911,-0.043892264493614
1.6912,-0.257420707489796
1.6913,-0.418774805809258
1.6914,-0.594621819020495
1.6915,-0.766282036452077
1.6916,-0.905735865728308
1.6917,-1.01781425483818
1.6918,-1.10380544760944
1.6919,-1.18142297797878
1.692,-1.19108491203165
1.6921,-1.18238917137585
1.6922,-1.18367742924145
1.6923,-1.16950659289773
1.6924,-1.1408428569342
1.6925,-1.12087486202087
1.6926,-1.09285525751827
1.6927,-1.05291927199435
1.6928,-0.960808864610384
1.6929,-0.79945465363967
1.693,-0.70734428366527
1.6931,-0.636168096878952
1.6932,-0.511529269803208
1.6933,-0.555974120658756
1.6934,-0.506054179643037
1.6935,-0.523445642626757
1.6936,-0.561449211147081
1.6937,-0.601385166427124
1.6938,-0.591401177418751
1.6939,-0.584959894254666
1.694,-0.549532837778368
1.6941,-0.509596885036783
1.6942,-0.41265558803155
1.6943,-0.289627112353895
1.6944,-0.225536367573772
1.6945,-0.132459864908114
1.6946,-0.0947783760736508
1.6947,-0.146308617473856
1.6948,-0.225858431608979
1.6949,-0.360159142384283
1.695,-0.541803298388633
1.6951,-0.731821163999181
1.6952,-0.898006322426128
1.6953,-1.10605989853822
1.6954,-1.33086091235626
1.6955,-1.53988086224967
1.6956,-1.79495619652378
1.6957,-2.0822382208512
1.6958,-2.34085666649341
1.6959,-2.57274387810926
1.696,-2.73989602788431
1.6961,-2.88385952410226
1.6962,-2.95406993858686
1.6963,-2.92927084499633
1.6964,-2.86711208865872
1.6965,-2.75342279597103
1.6966,-2.577574863673
1.6967,-2.40011671424764
1.6968,-2.21299671127008
1.6969,-1.98561867970986
1.697,-1.76210557597647
1.6971,-1.54632215659298
1.6972,-1.26387148785987
1.6973,-0.941162940452444
1.6974,-0.606538193061902
1.6975,-0.237130672896624
1.6976,0.147413736531647
1.6977,0.530025701613511
1.6978,0.91102735169659
1.6979,1.29363939098849
1.698,1.66819995995476
1.6981,2.06627141899004
1.6982,2.38221668588686
1.6983,2.77867838826139
1.6984,3.16322409091585
1.6985,3.44116653328839
1.6986,3.739399389602
1.6987,4.00381562371573
1.6988,4.19866576970457
1.6989,4.28336927185726
1.699,4.33296753482836
1.6991,4.34713846910732
1.6992,4.28304720525
1.6993,4.19737750375142
1.6994,4.02603819439742
1.6995,3.81894967748824
1.6996,3.5439054620352
1.6997,3.26274227159236
1.6998,2.944541851472
1.6999,2.55355508448123
1.7,2.19804838355528
1.7001,1.80545193019737
1.7002,1.43668845285731
1.7003,1.05633081907294
1.7004,0.691110283561579
1.7005,0.341670910417281
1.7006,0.0550339904978212
1.7007,-0.165579846243443
1.7008,-0.316305816934537
1.7009,-0.446741770372217
1.701,-0.468642129752274
1.7011,-0.401652796826521
1.7012,-0.234179484329847
1.7013,0.0096229696407653
1.7014,0.355519659873999
1.7015,0.762930543511266
1.7016,1.12718489938796
1.7017,1.45150340155515
1.7018,1.66986289282793
1.7019,1.7097988536126
1.702,1.62445184326544
1.7021,1.35552830324227
1.7022,0.987409125865554
1.7023,0.48627761867958
1.7024,-0.0393307562937619
1.7025,-0.534987339455795
1.7026,-1.01711751453759
1.7027,-1.39135644314225
1.7028,-1.68218088004949
1.7029,-1.87928460520478
1.703,-2.04708050772186
1.7031,-2.1858906164338
1.7032,-2.25416846437579
1.7033,-2.33693927175741
1.7034,-2.3127843645778
1.7035,-2.29861348658667
1.7036,-2.20070561992861
1.7037,-2.11761278302505
1.7038,-1.97944683289394
1.7039,-1.88057286518958
1.704,-1.79071674210506
1.7041,-1.67316306498072
1.7042,-1.55560942271937
1.7043,-1.36559127538204
1.7044,-1.17138636826695
1.7045,-0.976537405665179
1.7046,-0.80648745544498
1.7047,-0.682170663870706
1.7048,-0.656083464262908
1.7049,-0.712444699156693
1.705,-0.848677874385364
1.7051,-1.02903389626208
1.7052,-1.23451100625084
1.7053,-1.39135644314225
1.7054,-1.54498128685363
1.7055,-1.68314707453335
1.7056,-1.80810824809707
1.7057,-1.87864047521409
1.7058,-1.97139520582218
1.7059,-2.04804670317367
1.706,-2.14112354479821
1.7061,-2.22357225710939
1.7062,-2.29152804783592
1.7063,-2.36045004992371
1.7064,-2.44128849305718
1.7065,-2.47059645998973
1.7066,-2.58267530615893
1.7067,-2.6821936295989
1.7068,-2.77205001127889
1.7069,-2.93630369204506
1.707,-3.02422776504285
1.7071,-3.06835084650708
1.7072,-3.02390569878418
1.7073,-2.77172794534048
1.7074,-2.37526506176459
1.7075,-1.80778618316395
1.7076,-1.06188446340889
1.7077,-0.205515785319418
1.7078,0.764862927206664
1.7079,1.73556399078344
1.708,2.67889089138275
1.7081,3.5094970470085
1.7082,4.18358125256858
1.7083,4.67827589234817
1.7084,4.94462563668703
1.7085,5.00066541104651
1.7086,4.84961571127094
1.7087,4.55395799276892
1.7088,4.10789564486628
1.7089,3.59548858201112
1.709,3.07921767891165
1.7091,2.52268948312218
1.7092,1.99546986845521
1.7093,1.46309770940008
1.7094,0.962288135568104
1.7095,0.476293636647235
1.7096,0.0340998320861354
1.7097,-0.432248885779347
1.7098,-0.8699341170399
1.7099,-1.26253061852273
1.71,-1.55367703436013
1.7101,-1.77751208068567
1.7102,-1.99426182719391
1.7103,-2.158837133554
1.7104,-2.2503036801356
1.7105,-2.32759937408772
1.7106,-2.34917775879398
1.7107,-2.34692330061851
1.7108,-2.33210829016832
1.7109,-2.26737314422378
1.711,-2.20618073008974
1.7111,-2.15593854623696
1.7112,-2.050623224392
1.7113,-1.87413156531136
1.7114,-1.6815367503949
1.7115,-1.39006818471978
1.7116,-1.06478304295641
1.7117,-0.732412680581857
1.7118,-0.405195501812299
1.7119,-0.135305828738701
1.712,0.125243935572461
1.7121,0.328144224866968
1.7122,0.51622956477018
1.7123,0.594491101477416
1.7124,0.649886099016372
1.7125,0.641834500508905
1.7126,0.587083630905485
1.7127,0.513330989341918
1.7128,0.407371954086719
1.7129,0.258578412819296
1.713,0.126210127461205
1.7131,0.0170304412056222
1.7132,-0.126932164443501
1.7133,-0.211312937872984
1.7134,-0.360428594309475
1.7135,-0.402941053183461
1.7136,-0.485389463759581
1.7137,-0.567837882121557
1.7138,-0.629352137217879
1.7139,-0.647065667081291
1.714,-0.621300532871017
1.7141,-0.588449988004762
1.7142,-0.514697299048635
1.7143,-0.465099424522148
1.7144,-0.383939272093948
1.7145,-0.307610087308063
1.7146,-0.245129661663642
1.7147,-0.201973080994721
1.7148,-0.194243544321799
1.7149,-0.140458852946086
1.715,-0.105031811911588
1.7151,-0.0985905318199708
1.7152,-0.0811990757161282
1.7153,-0.0161421490928591
1.7154,0.0634076537982627
1.7155,0.223151378405188
1.7156,0.399642419568376
1.7157,0.556165492919055
1.7158,0.718163654866642
1.7159,0.889179614372246
1.716,1.05278811514531
1.7161,1.17517243764286
1.7162,1.23958524351785
1.7163,1.28080944112035
1.7164,1.35456211102544
1.7165,1.40351585119517
1.7166,1.4051261716373
1.7167,1.41027919707039
1.7168,1.37485214777424
1.7169,1.36615641768859
1.717,1.39353186451427
1.7171,1.33459413874939
1.7172,1.2914375548103
1.7173,1.16647670910467
1.7174,0.969051479075836
1.7175,0.736843363730494
1.7176,0.434425324852686
1.7177,0.0608311420173436
1.7178,-0.329510443541876
1.7179,-0.734989194355526
1.718,-1.15560520999082
1.7181,-1.52597946885203
1.7182,-1.92405164238208
1.7183,-2.21713095069465
1.7184,-2.38267256795946
1.7185,-2.44418708306224
1.7186,-2.38557115739001
1.7187,-2.17687278855482
1.7188,-1.90955871606493
1.7189,-1.52791185708445
1.719,-1.07315671729064
1.7191,-0.575567421765428
1.7192,-0.100522915844406
1.7193,0.407694018024837
1.7194,0.854718770438982
1.7195,1.20512439195312
1.7196,1.56486997377978
1.7197,1.81769037194909
1.7198,1.99836844763837
1.7199,2.13556787948276
1.72,2.21447367197132
1.7201,2.17936864443258
1.7202,2.10142905050282
1.7203,1.99418161104515
1.7204,1.87952671275892
1.7205,1.70013692741429
1.7206,1.46341977350902
1.7207,1.275978480386
1.7208,1.08241800279179
1.7209,0.817037287439767
1.721,0.594169037539387
1.7211,0.393201140797684
1.7212,0.294327510823308
1.7213,0.294327510823308
1.7214,0.351010764705776
1.7215,0.493363025281994
1.7216,0.698195690315521
1.7217,0.894976765739198
1.7218,1.07436640283067
1.7219,1.12299806727223
1.722,1.19675072723493
1.7221,1.1506955722762
1.7222,1.04988953921048
1.7223,0.928793482358776
1.7224,0.738775747411355
1.7225,0.589016014532405
1.7226,0.49754985645588
1.7227,0.444087242968252
1.7228,0.354231404112007
1.7229,0.29464957476781
1.723,0.323313265733054
1.7231,0.402540995013559
1.7232,0.542638807570822
1.7233,0.691110283561579
1.7234,0.873720544133496
1.7235,1.03024363579143
1.7236,1.10045358686391
1.7237,1.16390019695643
1.7238,1.18257991014784
1.7239,1.1432880999522
1.724,1.08241800279179
1.7241,0.970017671007526
1.7242,0.870821968475323
1.7243,0.741674322934571
1.7244,0.588049822718899
1.7245,0.463089015244825
1.7246,0.341348846476014
1.7247,0.25890047676681
1.7248,0.157450331650444
1.7249,0.120735040086243
1.725,0.0473044551113072
1.7251,0.0118774175116271
1.7252,-0.0454499721386147
1.7253,-0.103099427881049
1.7254,-0.214211514160182
1.7255,-0.312441048202843
1.7256,-0.41743393731966
1.7257,-0.571380587782429
1.7258,-0.71630946971099
1.7259,-0.887969717431399
1.726,-1.15335075884771
1.7261,-1.42066432324288
1.7262,-1.70440335377867
1.7263,-1.92050892700567
1.7264,-2.15336202419911
1.7265,-2.32180219636783
1.7266,-2.41616738087846
1.7267,-2.44579741085522
1.7268,-2.36624722838316
1.7269,-2.22614877971199
1.727,-2.0419274653588
1.7271,-1.83709409322101
1.7272,-1.61680172541536
1.7273,-1.35109836915012
1.7274,-1.09698948340695
1.7275,-0.861560445605929
1.7276,-0.648675987998606
1.7277,-0.47604960437008
1.7278,-0.279268450495907
1.7279,-0.147866325278917
1.728,-0.0332115404724263
1.7281,0.150364924550223
1.7282,0.332008992170701
1.7283,0.513653053278385
1.7284,0.702704585528491
1.7285,0.852786386681841
1.7286,0.932336186036601
1.7287,0.972594182827843
1.7288,0.96937354305301
1.7289,0.889501678336679
1.729,0.777745485205453
1.7291,0.548113894496292
1.7292,0.311718963791655
1.7293,0.0698489332358238
1.7294,-0.211312937872984
1.7295,-0.521782709928804
1.7296,-0.778145801495915
1.7297,-1.08475103581122
1.7298,-1.3205022352499
1.7299,-1.48314486527339
1.73,-1.56752581779857
1.7301,-1.45673556292244
1.7302,-1.23837578026272
1.7303,-0.87540920996086
1.7304,-0.350444608021208
1.7305,0.201573093611748
1.7306,0.780321996811496
1.7307,1.35617243138733
1.7308,1.88371354855228
1.7309,2.32526386691093
1.731,2.68178947478486
1.7311,2.93622077045769
1.7312,3.09338854698609
1.7313,3.10433876363857
1.7314,3.04507877191773
1.7315,2.9181851285157
1.7316,2.71592834757097
1.7317,2.46246338864631
1.7318,2.22606799352842
1.7319,1.93975273806244
1.732,1.65762445366839
1.7321,1.38741264692215
1.7322,1.09626675482731
1.7323,0.774202781750605
1.7324,0.531366569787302
1.7325,0.259544604661751
1.7326,-0.0203289809242436
1.7327,-0.250926814411746
1.7328,-0.482812950814607
1.7329,-0.722428689798489
1.733,-0.9720285048551
1.7331,-1.24095229628739
1.7332,-1.5417606396746
1.7333,-1.80810824809707
1.7334,-2.04063920478028
1.7335,-2.35819559166407
1.7336,-2.61133915615248
1.7337,-2.83549700887549
1.7338,-2.99975073059022
1.7339,-3.14790124009473
1.734,-3.21585726552734
1.7341,-3.24130052185952
1.7342,-3.24935218584029
1.7343,-3.26159071563146
1.7344,-3.24097845530615
1.7345,-3.28381331087249
1.7346,-3.35402384347784
1.7347,-3.50410698302859
1.7348,-3.70250030729355
1.7349,-3.95371291000485
1.735,-4.20782445152341
1.7351,-4.41459227701692
1.7352,-4.60300242347167
1.7353,-4.66129688706474
1.7354,-4.6004258730606
1.7355,-4.46676737390093
1.7356,-4.20363756653813
1.7357,-3.90604690446945
1.7358,-3.54114468363052
1.7359,-3.05965505609477
1.736,-2.64773258795058
1.7361,-2.26028770618711
1.7362,-1.94949478112613
1.7363,-1.78330924905677
1.7364,-1.80553172863986
1.7365,-1.88959068521179
1.7366,-2.05319974562998
1.7367,-2.249337484083
1.7368,-2.39780964640731
1.7369,-2.49829410179012
1.737,-2.50602367672143
1.7371,-2.43516924758512
1.7372,-2.27832336696142
1.7373,-2.03129931573223
1.7374,-1.69989444596372
1.7375,-1.28797371611494
1.7376,-0.77170451667478
1.7377,-0.175885894916029
1.7378,0.533298953406983
1.7379,1.32525428088198
1.738,2.23025483193444
1.7381,3.18678746545363
1.7382,4.19678597810596
1.7383,5.20678886155832
1.7384,6.11502321367865
1.7385,6.83291859095459
1.7386,7.31731489155034
1.7387,7.55113982512662
1.7388,7.51055860667142
1.7389,7.22971117175421
1.739,6.73082198852716
1.7391,6.12049840071377
1.7392,5.43416906220495
1.7393,4.68664963954513
1.7394,3.93011507669472
1.7395,3.24153856815611
1.7396,2.53911478308003
1.7397,2.00094496248008
1.7398,1.55134327970391
1.7399,1.1088272509737
1.74,0.827021270061742
1.7401,0.585795375154409
1.7402,0.431848813354006
1.7403,0.235389808518824
1.7404,0.0933596030086949
1.7405,-0.0676723877771588
1.7406,-0.195531800430587
1.7407,-0.3211367778691
1.7408,-0.417756001414107
1.7409,-0.578465999151104
1.741,-0.709224057044187
1.7411,-0.862204574173827
1.7412,-1.07669942570135
1.7413,-1.19940597701238
1.7414,-1.35013217541742
1.7415,-1.45544730431187
1.7416,-1.53725173366525
1.7417,-1.65609362987585
1.7418,-1.68668978766108
1.7419,-1.64160071385008
1.742,-1.56655962359028
1.7421,-1.42452909878308
1.7422,-1.22549320034
1.7423,-0.861238381322226
1.7424,-0.461234655196248
1.7425,0.111073121156781
1.7426,0.649564035075864
1.7427,1.17839307785713
1.7428,1.66213335228265
1.7429,2.058272420729
1.743,2.32590799602563
1.7431,2.48275346232216
1.7432,2.497890502029
1.7433,2.44764841480805
1.7434,2.31205922025251
1.7435,2.1771141932052
1.7436,2.04635603847712
1.7437,1.9104448854371
1.7438,1.79740032390535
1.7439,1.67243940636097
1.744,1.56712442281427
1.7441,1.46213151707398
1.7442,1.30721869351077
1.7443,1.10335216289638
1.7444,0.920097755175787
1.7445,0.72428286982929
1.7446,0.517517820516116
1.7447,0.329432480635211
1.7448,0.106886289607591
1.7449,-0.100200851840153
1.745,-0.302779126435202
1.7451,-0.512442850144654
1.7452,-0.690222268875748
1.7453,-0.901174353764471
1.7454,-1.09054819516418
1.7455,-1.2831427481149
1.7456,-1.4383778780767
1.7457,-1.65094059300663
1.7458,-1.84482365230452
1.7459,-2.07574430730372
1.746,-2.23033562898602
1.7461,-2.34370264611126
1.7462,-2.3456350388115
1.7463,-2.23033562898602
1.7464,-2.04418192138299
1.7465,-1.79586978083339
1.7466,-1.50923210453806
1.7467,-1.19715152567704
1.7468,-0.895055132014023
1.7469,-0.598756041147254
1.747,-0.334663468604851
1.7471,-0.111473092032425
1.7472,0.0460161992105049
1.7473,0.259544604661751
1.7474,0.43217087729137
1.7475,0.577421712776229
1.7476,0.699161882146479
1.7477,0.776779293353735
1.7478,0.833140485235632
1.7479,0.857295282117547
1.748,0.823800630502219
1.7481,0.66598929606522
1.7482,0.446985818401648
1.7483,0.271138906751025
1.7484,0.0853080038016792
1.7485,-0.0863520997252865
1.7486,-0.220974858857506
1.7487,-0.247384109951098
1.7488,-0.24190902126063
1.7489,-0.220652794823433
1.749,-0.172987318718477
1.7491,-0.0921492517572627
1.7492,-0.0567222119152695
1.7493,-0.0377204363385097
1.7494,-0.0931154437648381
1.7495,-0.133051380654152
1.7496,-0.184903687573019
1.7497,-0.243197277420758
1.7498,-0.304389446723728
1.7499,-0.416145680942979
1.75,-0.449640347318417
1.7501,-0.47862611729519
1.7502,-0.428062052495052
1.7503,-0.330154571673344
1.7504,-0.140136788932546
1.7505,0.0463382631857877
1.7506,0.223795506307096
1.7507,0.414457360722748
1.7508,0.571946625839998
1.7509,0.695941242710776
1.751,0.772592461999713
1.7511,0.803510601364609
1.7512,0.811240136256686
1.7513,0.840870020212699
1.7514,0.959711623762074
1.7515,0.999325493180983
1.7516,1.05343224313155
1.7517,1.05794113904271
1.7518,1.05633081907294
1.7519,1.05633081907294
1.752,0.972272118850106
1.7521,0.923318394868877
1.7522,0.863092433404343
1.7523,0.777101357304275
1.7524,0.679838045566442
1.7525,0.659870081181118
1.7526,0.591592526035552
1.7527,0.517839884452605
1.7528,0.449562329897546
1.7529,0.280156697239907
1.753,0.0225055288641244
1.7531,-0.3211367778691
1.7532,-0.700528323413105
1.7533,-1.1105161889676
1.7534,-1.55721974635887
1.7535,-1.97268346614114
1.7536,-2.31664914959811
1.7537,-2.57236920351032
1.7538,-2.7259945860673
1.7539,-2.80039181540521
1.754,-2.76786315411035
1.7541,-2.63903681177338
1.7542,-2.46737580413855
1.7543,-2.28025575924934
1.7544,-2.09635647930628
1.7545,-1.96753042489383
1.7546,-1.86865646050478
1.7547,-1.8248556250034
1.7548,-1.83612789834698
1.7549,-1.91600001657759
1.755,-2.08605039314558
1.7551,-2.27510271317499
1.7552,-2.45996829581634
1.7553,-2.6364602855516
1.7554,-2.7614218355193
1.7555,-2.79459462794813
1.7556,-2.7140781486739
1.7557,-2.57945464904048
1.7558,-2.36689135932999
1.7559,-2.08733865389821
1.756,-1.81422748187928
1.7561,-1.45834588619094
1.7562,-1.11148238223499
1.7563,-0.75302479103902
1.7564,-0.397143899590917
1.7565,-0.115981988134562
1.7566,0.145533965151989
1.7567,0.376453815968563
1.7568,0.494973344964274
1.7569,0.602542699931843
1.757,0.706891416801907
1.7571,0.783542636322062
1.7572,0.831208101494969
1.7573,0.840547956254857
1.7574,0.841836212086472
1.7575,0.80544298508565
1.7576,0.735555107943818
1.7577,0.686601388360277
1.7578,0.594813165415456
1.7579,0.50785590242214
1.758,0.409304337715258
1.7581,0.318482306594298
1.7582,0.291106871376905
1.7583,0.305599748866281
1.7584,0.373233176573826
1.7585,0.464055207054994
1.7586,0.519450204135077
1.7587,0.568081858592366
1.7588,0.647309587492804
1.7589,0.66985406336409
1.759,0.719129846702219
1.7591,0.723316677992448
1.7592,0.792882490921981
1.7593,0.870499904513525
1.7594,0.891111998159544
1.7595,0.936845081635622
1.7596,0.988375317807045
1.7597,1.05117779518085
1.7598,1.04151587542863
1.7599,1.06083971499251
1.76,1.0782311708066
1.7601,1.06277209896206
1.7602,1.05343224313155
1.7603,1.02541267597083
1.7604,1.01414043644427
1.7605,0.934912697806222
1.7606,0.875008799982733
1.7607,0.821546182812857
1.7608,0.761964351663992
1.7609,0.675007086433779
1.761,0.561640579848813
1.7611,0.461800759497868
1.7612,0.359062363218029
1.7613,0.241509023558129
1.7614,0.142957453468991
1.7615,0.0212172729459843
1.7616,-0.20712610547041
1.7617,-0.350766672093479
1.7618,-0.561718663289435
1.7619,-0.72951410259784
1.762,-0.897631646427853
1.7621,-1.08700548666334
1.7622,-1.16880985259714
1.7623,-1.23547719975099
1.7624,-1.34111436734208
1.7625,-1.4006963168143
1.7626,-1.48926409409528
1.7627,-1.51374101025031
1.7628,-1.54079444552568
1.7629,-1.48765377071272
1.763,-1.42549529267335
1.7631,-1.32501113906797
1.7632,-1.20262662179456
1.7633,-0.986521400440296
1.7634,-0.744329056865068
1.7635,-0.333697276403585
1.7636,0.192555302904374
1.7637,0.787085339787595
1.7638,1.44216354256556
1.7639,2.14555187705245
1.764,2.83090551687209
1.7641,3.36585581348176
1.7642,3.75458909554385
1.7643,3.9049939197351
1.7644,3.84380136829521
1.7645,3.60579468535009
1.7646,3.15554713457633
1.7647,2.63090323589755
1.7648,2.05279732614913
1.7649,1.5197809943877
1.765,1.10141977887409
1.7651,0.836683188763909
1.7652,0.677583597970609
1.7653,0.628951942918541
1.7654,0.680160109508789
1.7655,0.690788219618482
1.7656,0.661480400886786
1.7657,0.534909273090153
1.7658,0.397710035937701
1.7659,0.13393966255659
1.766,-0.125321844392618
1.7661,-0.301490870206124
1.7662,-0.402941053183461
1.7663,-0.438368103690589
1.7664,-0.376853862291568
1.7665,-0.315017560689067
1.7666,-0.318882329430205
1.7667,-0.323069162249158
1.7668,-0.335629660807023
1.7669,-0.362683042839941
1.767,-0.388770233352399
1.7671,-0.404551373632086
1.7672,-0.438046039588981
1.7673,-0.475727540254971
1.7674,-0.49956028509338
1.7675,-0.460912591086511
1.7676,-0.377175926372381
1.7677,-0.236111868557739
1.7678,-0.133051380654152
1.7679,0.0344218960634745
1.768,0.179028616788289
1.7681,0.339738526769389
1.7682,0.495939536773632
1.7683,0.686923452303081
1.7684,0.822834438635118
1.7685,0.977747206479361
1.7686,1.06116177898726
1.7687,1.10174184287762
1.7688,1.06728099490048
1.7689,1.02283616407231
1.769,0.931047930153034
1.7691,0.802544409504578
1.7692,0.675651214317861
1.7693,0.510754477850221
1.7694,0.341670910417281
1.7695,0.168400506220542
1.7696,-0.0567222119152695
1.7697,-0.275725745946116
1.7698,-0.476693732600651
1.7699,-0.696019424534856
1.77,-0.904072932509622
1.7701,-1.10407490056288
1.7702,-1.30955204044186
1.7703,-1.49634951704973
1.7704,-1.74433939670864
1.7705,-1.90601600083245
1.7706,-2.04321572594221
1.7707,-2.08508419758438
1.7708,-2.01068714770426
1.7709,-1.82260117037589
1.771,-1.52275882181751
1.7711,-1.14851979214532
1.7712,-0.723394882448738
1.7713,-0.317272009119673
1.7714,-0.000683077806065378
1.7715,0.273715418321464
1.7716,0.404151314704906
1.7717,0.482090787505016
1.7718,0.446341690527607
1.7719,0.380962711118662
1.772,0.182249256345851
1.7721,-0.0235496208017636
1.7722,-0.225161691308386
1.7723,-0.415501552755301
1.7724,-0.587805859687831
1.7725,-0.712444699156693
1.7726,-0.845779295896658
1.7727,-0.898597839335817
1.7728,-0.983622821294358
1.7729,-1.02259260881225
1.773,-1.06768162251919
1.7731,-1.07412291049129
1.7732,-1.08378484259175
1.7733,-1.13595927892787
1.7734,-1.1916764296186
1.7735,-1.21711952356871
1.7736,-1.22388287787309
1.7737,-1.230002103275
1.7738,-1.22549320034
1.7739,-1.22420494236606
1.774,-1.22388287787309
1.7741,-1.22195049091965
1.7742,-1.19071023620264
1.7743,-1.15721553224189
1.7744,-1.16526714357214
1.7745,-1.18265862447415
1.7746,-1.1665554013966
1.7747,-1.05093427414448
1.7748,-0.924362984110934
1.7749,-0.732090616360817
1.775,-0.477337860831692
1.7751,-0.18264923940273
1.7752,0.149076668711631
1.7753,0.450850585645342
1.7754,0.746505282145129
1.7755,0.982900230145524
1.7756,1.19739485528816
1.7757,1.2798432489718
1.7758,1.30689662945335
1.7759,1.2721137118136
1.776,1.20995535239342
1.7761,1.12815109141646
1.7762,1.0386172995144
1.7763,0.894010573843649
1.7764,0.783864700273304
1.7765,0.641834500508905
1.7766,0.530078314040919
1.7767,0.450850585645342
1.7768,0.393523204736341
1.7769,0.373233176573826
1.777,0.334907567646562
1.7771,0.319448498422442
1.7772,0.353587276230905
1.7773,0.378708263543976
1.7774,0.422508959166602
1.7775,0.430882621541862
1.7776,0.368402217478799
1.7777,0.317838178708757
1.7778,0.180316872611778
1.7779,0.0640517817429638
1.778,-0.0509250600199503
1.7781,-0.0931154437648381
1.7782,-0.143357429071428
1.7783,-0.114371668096416
1.7784,-0.0506029960264001
1.7785,0.0492368389608698
1.7786,0.169044634134969
1.7787,0.253425389655052
1.7788,0.415423552536347
1.7789,0.560674388037535
1.779,0.777101357304275
1.7791,0.933946505892224
1.7792,1.09272405080577
1.7793,1.26953719943941
1.7794,1.44796069640991
1.7795,1.56615823037015
1.7796,1.68983087294568
1.7797,1.71913871572856
1.7798,1.81414766510282
1.7799,1.81672417917094
1.78,1.75714229389382
1.7801,1.6869322951528
1.7802,1.58999097766396
1.7803,1.3867685187568
1.7804,1.26277385448523
1.7805,1.09852120284551
1.7806,0.905926940585391
1.7807,0.766151183004227
1.7808,0.675973278259933
1.7809,0.564217091345874
1.781,0.446985818401648
1.7811,0.372911112634267
1.7812,0.318160242651538
1.7813,0.30624387675356
1.7814,0.286275912202527
1.7815,0.297548150267211
1.7816,0.278868441457083
1.7817,0.253425389655052
1.7818,0.16292541894139
1.7819,-0.0158200851062671
1.782,-0.225805819379063
1.7821,-0.456403693562335
1.7822,-0.711478506521409
1.7823,-0.9720285048551
1.7824,-1.18652339808798
1.7825,-1.45802382153677
1.7826,-1.65802601871893
1.7827,-1.8577062511387
1.7828,-2.01551812447435
1.7829,-2.14756484968869
1.783,-2.23130182498022
1.7831,-2.28476467463467
1.7832,-2.22099573452777
1.7833,-2.12824093539854
1.7834,-1.91889860184623
1.7835,-1.7179300775361
1.7836,-1.48894202941829
1.7837,-1.28893990972076
1.7838,-1.11083825338987
1.7839,-0.937245556909114
1.784,-0.795215206570696
1.7841,-0.703748965486352
1.7842,-0.63869199836686
1.7843,-0.623554982079598
1.7844,-0.721784561365726
1.7845,-0.919854083696566
1.7846,-1.21583126561632
1.7847,-1.54530335157289
1.7848,-1.95368162691809
1.7849,-2.38589322288403
1.785,-2.78976363849872
1.7851,-3.17141209026543
1.7852,-3.440981873181
1.7853,-3.6103890977086
1.7854,-3.69412655927166
1.7855,-3.64323994398997
1.7856,-3.59525194478429
1.7857,-3.52246479904837
1.7858,-3.38880705125836
1.7859,-3.26126864904964
1.786,-3.14210404452242
1.7861,-2.98300328736773
1.7862,-2.83388667879578
1.7863,-2.63227343049272
1.7864,-2.38009604404479
1.7865,-2.02002703618791
1.7866,-1.568169947272
1.7867,-1.04610330836129
1.7868,-0.42033251417367
1.7869,0.218964547039502
1.787,0.887247230586625
1.7871,1.52171337916883
1.7872,2.07566389798948
1.7873,2.52977490655557
1.7874,2.84700876468221
1.7875,3.0312299710065
1.7876,3.06214822498218
1.7877,2.98549672546492
1.7878,2.92655881930358
1.7879,2.70111336467637
1.788,2.45119112589809
1.7881,2.09949666402186
1.7882,1.76809247782024
1.7883,1.41253364570615
1.7884,1.06953544287468
1.7885,0.712366503858051
1.7886,0.391268757165468
1.7887,0.135549982364898
1.7888,-0.0857079717231538
1.7889,-0.332731084203224
1.789,-0.524681287124215
1.7891,-0.663813004791207
1.7892,-0.786841536102229
1.7893,-0.772992773634093
1.7894,-0.693442910902834
1.7895,-0.576855678379985
1.7896,-0.354309376895233
1.7897,-0.124999780382668
1.7898,0.173875593488088
1.7899,0.430882621541862
1.79,0.645055139910598
1.7901,0.824766822369668
1.7902,0.939099529438969
1.7903,0.992884213540981
1.7904,0.963576391472446
1.7905,0.918809499299961
1.7906,0.84666717146087
1.7907,0.72428286982929
1.7908,0.611560490209785
1.7909,0.493363025281994
1.791,0.398676227753095
1.7911,0.287886231927962
1.7912,0.20608198895475
1.7913,0.0927154750732729
1.7914,-0.000361013822420847
1.7915,-0.0612311078489005
1.7916,-0.0953698917850224
1.7917,-0.152053157485307
1.7918,-0.183937495499543
1.7919,-0.188768455874374
1.792,-0.187158135747359
1.7921,-0.195853864457994
1.7922,-0.201328952936788
1.7923,-0.252859198667626
1.7924,-0.269928593070859
1.7925,-0.24190902126063
1.7926,-0.220652794823433
1.7927,-0.183615431475216
1.7928,-0.128542484496276
1.7929,-0.0937595717702464
1.793,-0.0670282597831041
1.7931,-0.0567222119152695
1.7932,-0.0515691880072503
1.7933,-0.00712435749171152
1.7934,0.0244379127396043
1.7935,0.0492368389608698
1.7936,0.0911051552338551
1.7937,0.108496609435149
1.7938,0.092393411105488
1.7939,0.0585766942062526
1.794,0.00994503362249444
1.7941,-0.0425513962091571
1.7942,-0.0947257637788967
1.7943,-0.170732870569374
1.7944,-0.229348523774053
1.7945,-0.312118984142506
1.7946,-0.309542471663337
1.7947,-0.29601578124977
1.7948,-0.320492649743207
1.7949,-0.315661688811605
1.795,-0.319848521617709
1.7951,-0.248028238034039
1.7952,-0.197786248624199
1.7953,-0.169444614485955
1.7954,-0.107286259950541
1.7955,-0.0293467725972637
1.7956,0.0176745691663178
1.7957,0.114615824769112
1.7958,0.208014372671036
1.7959,0.314295475336691
1.796,0.421542767353668
1.7961,0.52460322711936
1.7962,0.582574735777419
1.7963,0.603830955685235
1.7964,0.601576508116925
1.7965,0.607373659008081
1.7966,0.537163720646757
1.7967,0.476615700583803
1.7968,0.429594365792216
1.7969,0.347790125297726
1.797,0.294005446878781
1.7971,0.25890047676681
1.7972,0.178384488876311
1.7973,0.138770621978213
1.7974,0.0862741957081641
1.7975,-0.0167862770662302
1.7976,0.00253756202766402
1.7977,-0.0786225637182963
1.7978,-0.0634855558206911
1.7979,-0.0918271877548806
1.798,-0.0496368040461483
1.7981,-0.0344997964328716
1.7982,-0.0312791565336898
1.7983,-0.0380425003294301
1.7984,-0.0174304050398511
1.7985,-0.00583610155263157
1.7986,0.00608026583782541
1.7987,0.0270144245703604
1.7988,0.0434396874062636
1.7989,0.0241158487605016
1.799,0.0131656734365353
1.7991,-0.0100229333582295
1.7992,-0.0122773812578594
1.7993,0.00157137007817811
1.7994,0.0183186971267802
1.7995,-0.0145318291605218
1.7996,0.0270144245703604
1.7997,0.0498809669102877
1.7998,0.0659841655758035
1.7999,0.0389307917403306
1.8,0.0206580233828355
1.8001,0.0116402319166767
1.8002,0.0264551750155157
1.8003,0.038049478225238
1.8004,0.00552101625252036
1.8005,0.0396597981096881
1.8006,0.106004976190898
1.8007,0.0960209932198317
1.8008,0.175892855763999
1.8009,0.208743379136232
1.801,0.278631256112017
1.8011,0.277665064274049
1.8012,0.277020936381934
1.8013,0.259629483252488
1.8014,0.275410616651167
1.8015,0.291191749983758
1.8016,0.250289628759058
1.8017,0.290547622093867
1.8018,0.274122360866059
1.8019,0.207455123324948
1.802,0.139499628409325
1.8021,0.10214020859472
1.8022,0.0750868352226948
1.8023,0.0293537508248587
1.8024,-0.0421444538933984
1.8025,-0.100760101600303
1.8026,-0.162274327889268
1.8027,-0.206397099316828
1.8028,-0.260825921766036
1.8029,-0.338765423624708
1.803,-0.399313470461647
1.8031,-0.517510998730028
1.8032,-0.580635570895321
1.8033,-0.600925612999147
1.8034,-0.655998587111526
1.8035,-0.6733900534594
1.8036,-0.698188996930665
1.8037,-0.635064415194985
1.8038,-0.654066201986996
1.8039,-0.57805905764956
1.804,-0.56227791420035
1.8041,-0.541665808933982
1.8042,-0.503018112940557
1.8043,-0.486270778555855
1.8044,-0.480473624421107
1.8045,-0.442470059366766
1.8046,-0.373870407773853
1.8047,-0.327815245331649
1.8048,-0.303982504738769
1.8049,-0.212516315916612
1.805,-0.170003864378178
1.8051,-0.122338390087083
1.8052,-0.0798259414403758
1.8053,-0.0466533497905827
1.8054,-0.0218544225139515
1.8055,-0.0128366308709534
1.8056,0.0251669190987595
1.8057,0.0792736668392303
1.8058,0.0425583738981808
1.8059,0.0480334614864163
1.806,0.0786295388987893
1.8061,0.0989195689259193
1.8062,0.106327040156934
1.8063,0.123718494252812
1.8064,0.106649104122922
1.8065,0.103428464460883
1.8066,0.113090383432692
1.8067,0.130803901438446
1.8068,0.123396430289305
1.8069,0.138533436525266
1.807,0.117599278938314
1.8071,0.127905325774247
1.8072,0.143364395941626
1.8073,0.149161547228378
1.8074,0.131770093325703
1.8075,0.120175790651712
1.8076,0.113412447397684
1.8077,0.0853928822632655
1.8078,0.0680014278517149
1.8079,0.122752302362154
1.808,0.112124191537434
1.8081,0.0995636968600682
1.8082,0.113412447397684
1.8083,0.101818144628058
1.8084,0.107293232054755
1.8085,0.0953768652846063
1.8086,0.115988959115929
1.8087,0.0712220675689204
1.8088,0.109225615849109
1.8089,0.0969871851223014
1.809,0.0390156701560759
1.8091,0.0290316868462718
1.8092,0.0171153195980449
1.8093,0.022912471242216
1.8094,0.0570512527737325
1.8095,0.022912471242216
1.8096,0.0599498285356583
1.8097,0.0651028521017444
1.8098,0.0902238417956955
1.8099,0.0760530271349742
1.81,0.0525423571353993
1.8101,0.0287096228676278
1.8102,-0.00285264732305208
1.8103,-0.00220851935424506
1.8104,-0.0289398302682139
1.8105,0.0238786631810813
1.8106,0.0354729664071997
1.8107,0.0354729664071997
1.8108,0.047389333535686
1.8109,0.00648720820092538
1.811,-0.0289398302682139
1.8111,-0.0443989018403736
1.8112,-0.0279736382999049
1.8113,-0.0115483749259544
1.8114,-0.0527725656718424
1.8115,-0.0691978294734581
1.8116,-0.0807921334411414
1.8117,-0.110422021777178
1.8118,-0.0898099254789692
1.8119,-0.0956070775328178
1.812,-0.107523445717176
1.8121,-0.108167573729994
1.8122,-0.0904540534838049
1.8123,-0.117185365940523
1.8124,-0.172580376551503
1.8125,-0.172580376551503
1.8126,-0.168071480251591
1.8127,-0.193192474127353
1.8128,-0.169681800356877
1.8129,-0.171614184485896
1.813,-0.188361513727556
1.8131,-0.183530553346505
1.8132,-0.15454479144654
1.8133,-0.174190696662476
1.8134,-0.152934471360068
1.8135,-0.174834824707436
1.8136,-0.142950486867867
1.8137,-0.149713831193048
1.8138,-0.13264443843825
1.8139,-0.156477175552922
1.814,-0.157121303589018
1.8141,-0.113642661850873
1.8142,-0.107201381710877
1.8143,-0.123304582116707
1.8144,-0.117507429949121
1.8145,-0.088521669470155
1.8146,-0.0730625974526635
1.8147,-0.0453650938186379
1.8148,-0.000276135449284863
1.8149,-0.0154131427639397
1.815,0.0148608717313079
1.8151,0.0109961039530406
1.8152,0.000367992518549271
1.8153,0.00519895226959874
1.8154,0.0367612223166687
1.8155,0.0634925322388026
1.8156,0.087003202108662
1.8157,0.128549453699941
1.8158,0.150771867027788
1.8159,0.200369716352611
1.816,0.269291401667937
1.8161,0.26510457035776
1.8162,0.282173959515818
1.8163,0.286682854752353
1.8164,0.329839423200767
1.8165,0.377504886426214
1.8166,0.441917674061586
1.8167,0.512127612253219
1.8168,0.539180982922668
1.8169,0.563657842124725
1.817,0.568166737244893
1.8171,0.623883798530308
1.8172,0.62291760671302
1.8173,0.632579524891863
1.8174,0.660599087692837
1.8175,0.649970977649502
1.8176,0.61486600824051
1.8177,0.545300197720241
1.8178,0.498278862985994
1.8179,0.394252211257547
1.818,0.250289628759058
1.8181,0.145618843665911
1.8182,0.0654249160741741
1.8183,-0.0231426784669816
1.8184,-0.104302805657497
1.8185,-0.248587488093505
1.8186,-0.385786778822872
1.8187,-0.486270778555855
1.8188,-0.624114233193047
1.8189,-0.733293996301992
1.819,-0.790299366043795
1.8191,-0.896258512757083
1.8192,-0.975486336424531
1.8193,-1.04666256116452
1.8194,-1.1291110501098
1.8195,-1.19481219892547
1.8196,-1.26147954980195
1.8197,-1.31204368187984
1.8198,-1.32041736031932
1.8199,-1.31365400464517
1.82,-1.31300987553838
1.8201,-1.27436213072009
1.8202,-1.20511826224816
1.8203,-1.12846692124086
1.8204,-1.01574438099713
1.8205,-0.848915062054213
1.8206,-0.767110740487596
1.8207,-0.644726340622332
1.8208,-0.543276129639228
1.8209,-0.433774328604981
1.821,-0.349393537962416
1.8211,-0.316220939029785
1.8212,-0.307525209387426
1.8213,-0.302372184447817
1.8214,-0.267911330794948
1.8215,-0.293354390863175
1.8216,-0.198667562603282
1.8217,-0.195124858292549
1.8218,-0.142306358838693
1.8219,-0.09625120554024
1.822,-0.0463312857974972
1.8221,-0.026363318354003
1.8222,0.0251669190987595
1.8223,0.124362622179688
1.8224,0.142720268020012
1.8225,0.174926663894091
1.8226,0.193606373317064
1.8227,0.221948001169541
1.8228,0.2251686406811
1.8229,0.215828786088194
1.823,0.258663291409503
1.8231,0.314380353953962
1.8232,0.299565412543122
1.8233,0.316956865498634
1.8234,0.347875003927918
1.8235,0.332737998679032
1.8236,0.308905266916656
1.8237,0.267681081933824
1.8238,0.266392826146021
1.8239,0.222914193023364
1.824,0.280563639787221
1.8241,0.274122360866059
1.8242,0.271867913241052
1.8243,0.237407070794736
1.8244,0.239661518442129
1.8245,0.245136605579333
1.8246,0.249001372964866
1.8247,0.265748698251948
1.8248,0.242560093986489
1.8249,0.213252274471263
1.825,0.197149076813906
1.8251,0.159789657884976
1.8252,0.107293232054755
1.8253,0.0866811381396832
1.8254,0.0863590741706542
1.8255,0.0451348857063969
1.8256,0.0235565992015174
1.8257,-0.00349677529210309
1.8258,-0.0469754137837345
1.8259,-0.0685537014778914
1.826,-0.0772494294414229
1.8261,-0.0795038774402612
1.8262,-0.0956070775328178
1.8263,-0.0910981814889268
1.8264,-0.0936746935122818
1.8265,-0.0914202454915951
1.8266,-0.119761878011401
1.8267,-0.135543014551095
1.8268,-0.122660454096883
1.8269,-0.147459383080818
1.827,-0.164206712007145
1.8271,-0.151324151275572
1.8272,-0.136187142577018
1.8273,-0.119117749993232
1.8274,-0.12974586233161
1.8275,-0.141984294824223
1.8276,-0.12781347826395
1.8277,-0.104624869663135
1.8278,-0.102048357620079
1.8279,-0.0572814615998125
1.828,-0.0408561979251451
1.8281,-0.00510709521580015
1.8282,0.0174373835787726
1.8283,0.0374053502710656
1.8284,0.0676793638797063
1.8285,0.0680014278517149
1.8286,0.0725103234543419
1.8287,0.0718661955117352
1.8288,0.0818501785989527
1.8289,0.0956989292522435
1.829,0.028065494910168
1.8291,0.00680927218360725
1.8292,-0.0195999745985838
1.8293,-0.0669433814901798
1.8294,-0.0849789654517911
1.8295,-0.111388213798508
1.8296,-0.113642661850873
1.8297,-0.120083942020598
1.8298,-0.115575045898654
1.8299,-0.139085718697486
1.83,-0.141340166795516
1.8301,-0.179021657007655
1.8302,-0.227975389571101
1.8303,-0.24246827130641
1.8304,-0.273708483670205
1.8305,-0.263080370088566
1.8306,-0.258893537493172
1.8307,-0.269521651035047
1.8308,-0.287879301937824
1.8309,-0.319119515593189
1.831,-0.303338376622097
1.8311,-0.342630192461933
1.8312,-0.359699588336064
1.8313,-0.336833039211576
1.8314,-0.337155103280178
1.8315,-0.326204925004229
1.8316,-0.373870407773853
1.8317,-0.362920229099594
1.8318,-0.351647986472622
1.8319,-0.380311689403889
1.832,-0.379023433074487
1.8321,-0.36871738250026
1.8322,-0.373870407773853
1.8323,-0.366462933951526
1.8324,-0.386108842907303
1.8325,-0.381277881652058
1.8326,-0.366140869873555
1.8327,-0.38707503516124
1.8328,-0.418315251897758
1.8329,-0.388685355586613
1.833,-0.359055460184606
1.8331,-0.346817025385483
1.8332,-0.358733396109033
1.8333,-0.371615959213338
1.8334,-0.375802792258413
1.8335,-0.339731615832643
1.8336,-0.329103501595386
1.8337,-0.352936242766433
1.8338,-0.347461153529101
1.8339,-0.351647986472622
1.834,-0.342630192461933
1.8341,-0.363886421330685
1.8342,-0.343274320602895
1.8343,-0.336833039211576
1.8344,-0.355512755359006
1.8345,-0.379989625321379
1.8346,-0.3873970992461
1.8347,-0.369683574737006
1.8348,-0.372582151452926
1.8349,-0.372582151452926
1.835,-0.390617740100605
1.8351,-0.386752971076487
1.8352,-0.35197005054592
1.8353,-0.352292114619321
1.8354,-0.30462663285583
1.8355,-0.297541223589495
1.8356,-0.276284996068927
1.8357,-0.256639089179006
1.8358,-0.215736956244773
1.8359,-0.177411336890547
1.836,-0.155510983499374
1.8361,-0.141018102781279
1.8362,-0.130067926343153
1.8363,-0.0788597494402426
1.8364,-0.0656551255012474
1.8365,-0.0366693660355545
1.8366,-0.0179896546609266
1.8367,-0.00639535115586044
1.8368,-0.0186337826358007
1.8369,-0.0131586948573586
1.837,0.0242007271605874
1.8371,0.0512541012367812
1.8372,0.0853928822632655
1.8373,0.0786295388987893
1.8374,0.0818501785989527
1.8375,0.140143756331812
1.8376,0.143042331980841
1.8377,0.192640181453506
1.8378,0.211641954709545
1.8379,0.192962245408063
1.838,0.17428253598062
1.8381,0.192318117498912
1.8382,0.16075584976059
1.8383,0.168163320794689
1.8384,0.159467593926355
1.8385,0.14980567514827
1.8386,0.0696117477109711
1.8387,0.0544747409816971
1.8388,0.0696117477109711
1.8389,0.0187256395010983
1.839,0.0203359594026916
1.8391,0.0032665683708071
1.8392,-0.0511622457007555
1.8393,-0.0637227415199048
1.8394,-0.040212069941412
1.8395,-0.0469754137837345
1.8396,-0.0279736382999049
1.8397,-0.0279736382999049
1.8398,-0.0456871578115248
1.8399,-0.0608241655524999
1.84,-0.0634006775232537
1.8401,-0.0147690147903188
1.8402,-0.0109042469538272
1.8403,-0.0237868064438771
1.8404,0.0106740399711336
1.8405,0.0113181679348883
1.8406,0.00519895226959874
1.8407,0.0113181679348883
1.8408,0.0109961039530406
1.8409,0.03933773413291
1.841,0.0406259900396872
1.8411,0.0709000035974349
1.8412,0.109869743780179
1.8413,0.0705779396258972
1.8414,0.0828163705080092
1.8415,0.038693606179186
1.8416,0.0187256395010983
1.8417,0.03837154220224
1.8418,0.0721882594830646
1.8419,0.129837709550786
1.842,0.139499628409325
1.8421,0.173960472023825
1.8422,0.203912419840965
1.8423,0.198115268675904
1.8424,0.222914193023364
1.8425,0.217761169799433
1.8426,0.206488931466111
1.8427,0.18394445466618
1.8428,0.14980567514827
1.8429,0.19199605354428
1.843,0.189741605860804
1.8431,0.191029861680159
1.8432,0.178791431371596
1.8433,0.204234483794234
1.8434,0.1900636698157
1.8435,0.152704250785677
1.8436,0.123074366325753
1.8437,0.154314570582754
1.8438,0.140787884254124
1.8439,0.120175790651712
1.844,0.0963430571873706
1.8441,0.154958698501291
1.8442,0.141109948215215
1.8443,0.113734511362629
1.8444,0.149161547228378
1.8445,0.150449803067991
1.8446,0.182656198843465
1.8447,0.170417768496453
1.8448,0.169129512667116
1.8449,0.16880744870968
1.845,0.170739832453687
1.8451,0.159145529967693
1.8452,0.108903551883502
1.8453,0.0818501785989527
1.8454,0.0203359594026916
1.8455,-0.0038188392767202
1.8456,-0.0505181177127887
1.8457,-0.0279736382999049
1.8458,0.00133418446984599
1.8459,0.00391069633731161
1.846,-0.00188645536993295
1.8461,0.0116402319166767
1.8462,0.0126064238616865
1.8463,0.0467452055847359
1.8464,0.0432025018505672
1.8465,0.078307474928492
1.8466,0.038049478225238
1.8467,0.0699338116826654
1.8468,0.0973092490896933
1.8469,0.0586615726420052
1.847,0.0702558756543074
1.8471,0.0831384344775933
1.8472,0.0908679697325033
1.8473,0.0766971550762363
1.8474,0.104394656359999
1.8475,0.101174016694589
1.8476,0.0789516028690354
1.8477,0.0596277645623252
1.8478,0.065746980046551
1.8479,0.0712220675689204
1.848,0.0882914579840755
1.8481,0.115988959115929
1.8482,0.0979533770243303
1.8483,0.108259423952146
1.8484,0.130481837475938
1.8485,0.154958698501291
1.8486,0.166553001006503
1.8487,0.169773640581865
1.8488,0.164298553301336
1.8489,0.159145529967693
1.849,0.183622390710559
1.8491,0.200047652398905
1.8492,0.16333236142708
1.8493,0.151415994947254
1.8494,0.16075584976059
1.8495,0.134346605023085
1.8496,0.104716720326275
1.8497,0.0683234918236709
1.8498,0.0357950303846514
1.8499,0.038693606179186
1.85,0.00455482430357539
1.8501,-0.0324825341569602
1.8502,-0.0708081494635827
1.8503,-0.0904540534838049
1.8504,-0.0756391094443519
1.8505,-0.111066149791324
1.8506,-0.13264443843825
1.8507,-0.177089272867372
1.8508,-0.165172904067168
1.8509,-0.203498523043507
1.851,-0.247943360009118
1.8511,-0.286268981670912
1.8512,-0.308491401566381
1.8513,-0.304948696914506
1.8514,-0.331680014127673
1.8515,-0.340053679902157
1.8516,-0.334578590734191
1.8517,-0.318797451530193
1.8518,-0.359055460184606
1.8519,-0.353580370913957
1.852,-0.336510975143074
1.8521,-0.347461153529101
1.8522,-0.328137309397433
1.8523,-0.326526989069513
1.8524,-0.353902434987874
1.8525,-0.341664000251254
1.8526,-0.321373964036937
1.8527,-0.326204925004229
1.8528,-0.308491401566381
1.8529,-0.29625296736428
1.853,-0.279505636575782
1.8531,-0.302050120389917
1.8532,-0.306881081268611
1.8533,-0.290133750315505
1.8534,-0.347461153529101
1.8535,-0.356478947582927
1.8536,-0.37097183105414
1.8537,-0.358089267958199
1.8538,-0.353258306840143
1.8539,-0.343596384673529
1.854,-0.326204925004229
1.8541,-0.301728056332115
1.8542,-0.271131971277472
1.8543,-0.22604300535328
1.8544,-0.231518093978681
1.8545,-0.193514538154675
1.8546,-0.201888202894643
1.8547,-0.157443367607185
1.8548,-0.145204934972428
1.8549,-0.12427077414701
1.855,-0.0785376854403385
1.8551,-0.0605021015564619
1.8552,-0.0498739897250889
1.8553,0.00391069633731161
1.8554,0.0219462793028297
1.8555,0.0419142459455721
1.8556,0.0225904072624785
1.8557,0.0277434309313523
1.8558,0.0802398587495086
1.8559,0.086037010201575
1.856,0.125328814069659
1.8561,0.111480063607026
1.8562,0.130481837475938
1.8563,0.120175790651712
1.8564,0.118565470831186
1.8565,0.0844266903554234
1.8566,0.100851952727782
1.8567,0.0937665454456817
1.8568,0.0805619227194993
1.8569,0.0283875588889265
1.857,-0.0131586948573586
1.8571,-0.0215323585258522
1.8572,-0.0366693660355545
1.8573,-0.0472974777769525
1.8574,-0.0817583254425403
1.8575,-0.074994981446012
1.8576,-0.123626646126732
1.8577,-0.160341943774277
1.8578,-0.216059020278065
1.8579,-0.22958570975504
1.858,-0.256317025134492
1.8581,-0.271776099375095
1.8582,-0.294642647084927
1.8583,-0.301728056332115
1.8584,-0.29786328764604
1.8585,-0.310423785926932
1.8586,-0.297219159533047
1.8587,-0.30655901720935
1.8588,-0.308169337506632
1.8589,-0.306881081268611
1.859,-0.355190691284573
1.8591,-0.361954036869441
1.8592,-0.307525209387426
1.8593,-0.287879301937824
1.8594,-0.255994961090069
1.8595,-0.292710262752875
1.8596,-0.287557237884251
1.8597,-0.308169337506632
1.8598,-0.300439800101876
1.8599,-0.274352611769323
1.86,-0.236026990512916
1.8601,-0.196413114404363
1.8602,-0.163562583967531
1.8603,-0.126847286231147
1.8604,-0.142950486867867
1.8605,-0.119439814002279
1.8606,-0.118473621975363
1.8607,-0.136187142577018
1.8608,-0.137475398629787
1.8609,-0.114608853874429
1.861,-0.0985056535684951
1.8611,-0.0927085015029853
1.8612,-0.0463312857974972
1.8613,-0.0353811100717428
1.8614,-0.022820614478629
1.8615,0.0174373835787726
1.8616,0.00906372006070712
1.8617,0.038693606179186
1.8618,0.0196918314422292
1.8619,0.0312861346951816
1.862,0.0689676197674257
1.8621,0.0699338116826654
1.8622,0.159789657884976
1.8623,0.177825239502751
1.8624,0.229033408090542
1.8625,0.204234483794234
1.8626,0.258341227461783
1.8627,0.263172186674505
1.8628,0.295056517320961
1.8629,0.326940847720802
1.863,0.363334073075416
1.8631,0.363978200955685
1.8632,0.365910584596087
1.8633,0.394896339134926
1.8634,0.362367881254886
1.8635,0.336602765980792
1.8636,0.363656137015559
1.8637,0.309549394803746
1.8638,0.3124479702945
1.8639,0.29570064521014
1.864,0.271545849294511
1.8641,0.247068989272657
1.8642,0.265426634304868
1.8643,0.290869686038825
1.8644,0.314702417897126
1.8645,0.292802069708037
1.8646,0.310515586634207
1.8647,0.270579657454719
1.8648,0.221625937218199
1.8649,0.161722041635833
1.865,0.1475512274279
1.8651,0.0950548013169199
1.8652,0.073154451396741
1.8653,0.0425583738981808
1.8654,0.0419142459455721
1.8655,0.00906372006070712
1.8656,-0.0511622457007555
1.8657,-0.0672654454875845
1.8658,-0.0920643734971467
1.8659,-0.11299853383554
1.866,-0.144560806942163
1.8661,-0.138763654683792
1.8662,-0.17129212046419
1.8663,-0.190615961911787
1.8664,-0.186429129572894
1.8665,-0.184818809446293
1.8666,-0.173546568617842
1.8667,-0.194480730237148
1.8668,-0.207041227378505
1.8669,-0.242790335347026
1.867,-0.260503857720329
1.8671,-0.256961153223612
1.8672,-0.273386419620786
1.8673,-0.280149764678283
1.8674,-0.261470049857727
1.8675,-0.254706704913292
1.8676,-0.246977167883216
1.8677,-0.243434463428526
1.8678,-0.211550123819847
1.8679,-0.218635532547522
1.868,-0.245366847675186
1.8681,-0.261147985811835
1.8682,-0.232806350129545
1.8683,-0.241502079185103
1.8684,-0.248909552135834
1.8685,-0.225720941317284
1.8686,-0.178055464937144
1.8687,-0.167427352210043
1.8688,-0.175801016775489
1.8689,-0.158731623680651
