7.7,-0.646477982478514
7.7001,-0.618780463037416
7.7002,-0.62103491225643
7.7003,-0.668056283218933
7.7004,-0.693821419264415
7.7005,-0.633917479350324
7.7006,-0.626832067421636
7.7007,-0.618136334690347
7.7008,-0.614271564619305
7.7009,-0.577234185748199
7.701,-0.564351619592139
7.7011,-0.582709276427647
7.7012,-0.594625650390753
7.7013,-0.556300015849596
7.7014,-0.571759095106489
7.7015,-0.588184367145024
7.7016,-0.577556249904768
7.7017,-0.585285789701677
7.7018,-0.555977951701563
7.7019,-0.537942359614913
7.702,-0.576590057435455
7.7021,-0.590116752113189
7.7022,-0.611695051249417
7.7023,-0.579166570689568
7.7024,-0.56789432526437
7.7025,-0.546638091464142
7.7026,-0.515719934193026
7.7027,-0.537298231333444
7.7028,-0.523771537538336
7.7029,-0.520228832056876
7.703,-0.487700355147582
7.7031,-0.503803561383078
7.7032,-0.551469053642527
7.7033,-0.514431677664937
7.7034,-0.529890756132634
7.7035,-0.499616727732764
7.7036,-0.542129193456746
7.7037,-0.477716367432305
7.7038,-0.489954804002409
7.7039,-0.45646013590058
7.704,-0.466122059260753
7.7041,-0.487378291025944
7.7042,-0.503481497255401
7.7043,-0.511855164614661
7.7044,-0.497362278852627
7.7045,-0.516686126590387
7.7046,-0.504769753766838
7.7047,-0.496074022352353
7.7048,-0.498650535354836
7.7049,-0.488988611635335
7.705,-0.485445906298626
7.7051,-0.478360495668548
7.7052,-0.491565124616602
7.7053,-0.483191457455527
7.7054,-0.480937008618272
7.7055,-0.487378291025944
7.7056,-0.51636406245781
7.7057,-0.498006407103489
7.7058,-0.524093601673759
7.7059,-0.487700355147582
7.706,-0.455493943570324
7.7061,-0.509278651572239
7.7062,-0.46773237983101
7.7063,-0.455816007680293
7.7064,-0.448408533180265
7.7065,-0.446798212644853
7.7066,-0.424253725448462
7.7067,-0.427796430542582
7.7068,-0.44357757158264
7.7069,-0.431339135650328
7.707,-0.399132726076521
7.7071,-0.399132726076521
7.7072,-0.422965469053968
7.7073,-0.410082905207201
7.7074,-0.373367599205258
7.7075,-0.388826675245295
7.7076,-0.366604253514832
7.7077,-0.432305327954812
7.7078,-0.445509956218591
7.7079,-0.427796430542582
7.708,-0.418456571687339
7.7081,-0.408150520645492
7.7082,-0.371757278798547
7.7083,-0.359518843793684
7.7084,-0.376266175944023
7.7085,-0.353077562272858
7.7086,-0.331499269478312
7.7087,-0.336008166442291
7.7088,-0.35243343412306
7.7089,-0.345670088575128
7.709,-0.369502830233596
7.7091,-0.344059768213263
7.7092,-0.389470803418996
7.7093,-0.383351585786234
7.7094,-0.386250162554805
7.7095,-0.403963687442059
7.7096,-0.424575789547366
7.7097,-0.434237712566835
7.7098,-0.460002841120461
7.7099,-0.469664764519194
7.71,-0.471597149211612
7.7101,-0.470953020980335
7.7102,-0.462901418129026
7.7103,-0.471275085095914
7.7104,-0.489632739879931
7.7105,-0.47578398272642
7.7106,-0.477394303314361
7.7107,-0.49253131698656
7.7108,-0.545027770744365
7.7109,-0.509278651572239
7.711,-0.486734162783026
7.7111,-0.485123842177825
7.7112,-0.491887188739801
7.7113,-0.493175445233801
7.7114,-0.493819573481524
7.7115,-0.497362278852627
7.7116,-0.507668330924704
7.7117,-0.523127409267864
7.7118,-0.527314243034819
7.7119,-0.551146989496411
7.712,-0.549214604622386
7.7121,-0.542451257599309
7.7122,-0.531501076822826
7.7123,-0.48061494449914
7.7124,-0.457748392342545
7.7125,-0.479004623905266
7.7126,-0.483835585695815
7.7127,-0.460002841120461
7.7128,-0.506380074408877
7.7129,-0.49639608647724
7.713,-0.479326688023803
7.7131,-0.447120276751705
7.7132,-0.435525968977118
7.7133,-0.396878277447683
7.7134,-0.40911671292585
7.7135,-0.414591802533337
7.7136,-0.396234149268996
7.7137,-0.416524187108335
7.7138,-0.390759059767694
7.7139,-0.394623828824181
7.714,-0.376588240026639
7.7141,-0.422321340857394
7.7142,-0.40911671292585
7.7143,-0.401065110619782
7.7144,-0.374333791450557
7.7145,-0.352755498197908
7.7146,-0.344381832285431
7.7147,-0.38721635481293
7.7148,-0.384639842126747
7.7149,-0.362739484569736
7.715,-0.383029521701374
7.7151,-0.326668308467446
7.7152,-0.314107809944631
7.7153,-0.287698557128277
7.7154,-0.280935211999227
7.7155,-0.309598913075827
7.7156,-0.313785745881932
7.7157,-0.316362258386298
7.7158,-0.329566885071245
7.7159,-0.341483255639609
7.716,-0.346958344866469
7.7161,-0.337940550861512
7.7162,-0.300581119395964
7.7163,-0.277714571476322
7.7164,-0.276426315269809
7.7165,-0.281579340104946
7.7166,-0.288664749293008
7.7167,-0.299936991278903
7.7168,-0.287054429018935
7.7169,-0.287054429018935
7.717,-0.280291083893888
7.7171,-0.26000104876831
7.7172,-0.227472580518815
7.7173,-0.217166531362678
7.7174,-0.215234147155889
7.7175,-0.209436994554287
7.7176,-0.156296430314411
7.7177,-0.140837357497391
7.7178,-0.135362269251392
7.7179,-0.12795479695415
7.718,-0.0980028441602128
7.7181,-0.110563340414562
7.7182,-0.092849820088085
7.7183,-0.0992911001811559
7.7184,-0.0838320280063097
7.7185,-0.0793231319864159
7.7186,-0.0413195803587717
7.7187,-0.0161985891142212
7.7188,-0.0116896932909777
7.7189,0.0324330723487927
7.719,0.0617408941810689
7.7191,0.0627070861018714
7.7192,0.0746234530857634
7.7193,0.0968458670016009
7.7194,0.0894383957231317
7.7195,0.11745796085755
7.7196,0.188634096037172
7.7197,0.220518427451945
7.7198,0.252724822476108
7.7199,0.308119821220324
7.72,0.306187437556336
7.7201,0.268183891976129
7.7202,0.250792438783713
7.7203,0.310052204883446
7.7204,0.329376041468832
7.7205,0.373820865334969
7.7206,0.359005924085508
7.7207,0.412146474069911
7.7208,0.417299497079171
7.7209,0.437911589089783
7.721,0.482034348446442
7.7211,0.486221179621632
7.7212,0.530988066791676
7.7213,0.609571667482647
7.7214,0.614724690497997
7.7215,0.670441752093976
7.7216,0.65079585170613
7.7217,0.672374135742461
7.7218,0.739041372107589
7.7219,0.711988000704992
7.722,0.734532476860841
7.7221,0.7470929707761
7.7222,0.763840296064814
7.7223,0.79733494689708
7.7224,0.779621429585927
7.7225,0.762874104219027
7.7226,0.776400790085606
7.7227,0.801521778276664
7.7228,0.807963057333849
7.7229,0.848543115738302
7.723,0.839847388885282
7.7231,0.887190791012229
7.7232,0.914566228057787
7.7233,0.926160530911565
7.7234,0.952569776546803
7.7235,0.978012830608202
7.7236,0.988963005881302
7.7237,1.00667652484762
7.7238,1.01633844435983
7.7239,1.0076427167964
7.724,1.00796478077944
7.7241,0.981877598344112
7.7242,0.976080446743303
7.7243,1.00120143714806
7.7244,0.987030622004764
7.7245,0.983487918236492
7.7246,1.01666050834451
7.7247,0.961265503845763
7.7248,0.954180096414018
7.7249,0.91392210012334
7.725,0.942263729428057
7.7251,0.873986168556518
7.7252,0.890733494610833
7.7253,0.901683669405578
7.7254,0.887834918938836
7.7255,0.872375848749959
7.7256,0.904904309061435
7.7257,0.92519433900462
7.7258,0.898785093719355
7.7259,0.884936343270538
7.726,0.87624061628755
7.7261,0.878495064020751
7.7262,0.912311780288075
7.7263,0.8768847442111
7.7264,0.862713929933428
7.7265,0.877528872134827
7.7266,0.883648087419141
7.7267,0.882359831568466
7.7268,0.861747738053903
7.7269,0.890089366683402
7.727,0.862713929933428
7.7271,0.87624061628755
7.7272,0.878495064020751
7.7273,0.895242390108024
7.7274,0.878173000058732
7.7275,0.881715703643398
7.7276,0.84564454011735
7.7277,0.839203260971409
7.7278,0.843712156371878
7.7279,0.831473726017272
7.728,0.827286894593166
7.7281,0.855950586784751
7.7282,0.83437230162242
7.7283,0.851441691362568
7.7284,0.821489743401245
7.7285,0.844356284286873
7.7286,0.84725485990636
7.7287,0.859171226377037
7.7288,0.857238842621161
7.7289,0.821489743401245
7.729,0.825676574816395
7.7291,0.81665878408398
7.7292,0.81247195268244
7.7293,0.819557359673329
7.7294,0.81247195268244
7.7295,0.777044917985411
7.7296,0.795402563185413
7.7297,0.78413032489187
7.7298,0.765128551859628
7.7299,0.77156983084116
7.73,0.777044917985411
7.7301,0.745804714987947
7.7302,0.787673028351096
7.7303,0.82084561549179
7.7304,0.811505760821428
7.7305,0.765128551859628
7.7306,0.735820732645077
7.7307,0.720683727207295
7.7308,0.706834977600995
7.7309,0.676560966983293
7.731,0.670441752093976
7.7311,0.676883030925036
7.7312,0.693308291981686
7.7313,0.656270938692675
7.7314,0.636947102291257
7.7315,0.619555649577863
7.7316,0.653372363228581
7.7317,0.628895503807593
7.7318,0.628895503807593
7.7319,0.587993383637916
7.732,0.568669547395934
7.7321,0.526479171680362
7.7322,0.530343938918601
7.7323,0.518749637204764
7.7324,0.509087719111224
7.7325,0.504900887937445
7.7326,0.485254987812015
7.7327,0.465931151613064
7.7328,0.447895571144332
7.7329,0.434690949715668
7.733,0.445641123584279
7.7331,0.419553944644832
7.7332,0.425029031587858
7.7333,0.429537926715227
7.7334,0.440810164525762
7.7335,0.422130456147805
7.7336,0.436301269402834
7.7337,0.427605543089445
7.7338,0.445641123584279
7.7339,0.438555716964503
7.734,0.443064612086622
7.7341,0.431470310340668
7.7342,0.46238844830818
7.7343,0.476237197587587
7.7344,0.467541471296894
7.7345,0.469151790980603
7.7346,0.417299497079171
7.7347,0.412790601946227
7.7348,0.387347550793622
7.7349,0.396365341084957
7.735,0.358361796204262
7.7351,0.408281706811031
7.7352,0.414400921636817
7.7353,0.429215862777621
7.7354,0.369634034115928
7.7355,0.361582435609777
7.7356,0.391212318062684
7.7357,0.39153438200168
7.7358,0.377041504732367
7.7359,0.336139384254985
7.736,0.32551127415822
7.7361,0.360938307728816
7.7362,0.353530837092597
7.7363,0.369311970175886
7.7364,0.375431185033867
7.7365,0.359327988026104
7.7366,0.369956098055953
7.7367,0.378007696551276
7.7368,0.395399149268548
7.7369,0.398941852594792
7.737,0.370600225935954
7.7371,0.380906272007163
7.7372,0.348377814035535
7.7373,0.353208773151672
7.7374,0.359327988026104
7.7375,0.347733686153059
7.7376,0.353852901033504
7.7377,0.381872463825515
7.7378,0.377041504732367
7.7379,0.36834577835566
7.738,0.361260371669306
7.7381,0.369634034115928
7.7382,0.321324442901483
7.7383,0.301678542336945
7.7384,0.310052204883446
7.7385,0.321002378958501
7.7386,0.282998833517818
7.7387,0.251758630630049
7.7388,0.251436566681302
7.7389,0.231468601797057
7.739,0.256589589857586
7.7391,0.247571799293907
7.7392,0.246283543497108
7.7393,0.249182119039199
7.7394,0.250792438783713
7.7395,0.279456130111033
7.7396,0.304577117835677
7.7397,0.273981043021251
7.7398,0.267539764081653
7.7399,0.271082467499845
7.74,0.265285316450073
7.7401,0.283320897463726
7.7402,0.292338687938304
7.7403,0.281388513787871
7.7404,0.242418776103677
7.7405,0.263674996712354
7.7406,0.296525519223098
7.7407,0.322612698673188
7.7408,0.258199909598578
7.7409,0.275269298807808
7.741,0.270760403552881
7.7411,0.288795984540053
7.7412,0.319392059243251
7.7413,0.271404531446782
7.7414,0.302644734170078
7.7415,0.332596680891971
7.7416,0.334851128486909
7.7417,0.324867146272812
7.7418,0.323900954444535
7.7419,0.333240808776344
7.742,0.329698105411242
7.7421,0.321646506844443
7.7422,0.312306652489337
7.7423,0.335817320312997
7.7424,0.293304879773643
7.7425,0.301356478392517
7.7426,0.293626943718704
7.7427,0.264319124607529
7.7428,0.249182119039199
7.7429,0.22695970648323
7.743,0.232434793649167
7.7431,0.217619851883368
7.7432,0.195075375140026
7.7433,0.178328049440486
7.7434,0.177683921526857
7.7435,0.158360084042621
7.7436,0.150952612967275
7.7437,0.142256886023691
7.7438,0.150952612967275
7.7439,0.134527350935804
7.744,0.163513107386221
7.7441,0.157715956123916
7.7442,0.116491768962433
7.7443,0.0984561868412656
7.7444,0.114237321205509
7.7445,0.122610984291052
7.7446,0.0697924935064172
7.7447,0.0449935674761082
7.7448,0.0469259513342679
7.7449,0.0520789749462825
7.745,0.0501465910934319
7.7451,0.0511127830201046
7.7452,0.0942693552555617
7.7453,0.0562658066206925
7.7454,0.0114989136086577
7.7455,0.0337213282632546
7.7456,0.085251564119194
7.7457,0.07558964500022
7.7458,0.0395184798670659
7.7459,0.0639953419955245
7.746,0.0359757761113666
7.7461,0.0585202544415633
7.7462,0.0343654562201429
7.7463,0.0292124325586257
7.7464,0.0108547856434735
7.7465,0.0227711529609645
7.7466,0.0288903685792927
7.7467,0.0359757761113666
7.7468,0.0714028133675115
7.7469,0.078810284711698
7.747,0.0858956920588189
7.7471,0.147731973362234
7.7472,0.170598514466369
7.7473,0.157393892164501
7.7474,0.188312032081628
7.7475,0.2008725263197
7.7476,0.197329822822448
7.7477,0.171564706339403
7.7478,0.193465055365737
7.7479,0.212788892596098
7.748,0.225671450678066
7.7481,0.22695970648323
7.7482,0.216975723978856
7.7483,0.210534444925977
7.7484,0.198940142594484
7.7485,0.230824473895484
7.7486,0.254657206167396
7.7487,0.300390286559086
7.7488,0.298779966836199
7.7489,0.319714123186346
7.749,0.314239036150609
7.7491,0.282354705625921
7.7492,0.248860055090203
7.7493,0.232756857599804
7.7494,0.274625170914586
7.7495,0.292016623993139
7.7496,0.320036187129419
7.7497,0.344835110680957
7.7498,0.334207000602746
7.7499,0.276557554593916
7.75,0.354174964974392
7.7501,0.327121593871356
7.7502,0.298135838946868
7.7503,0.296847583167903
7.7504,0.303932989947242
7.7505,0.279134066164798
7.7506,0.292338687938304
7.7507,0.257233717754073
7.7508,0.235977497104358
7.7509,0.254335142218925
7.751,0.256267525909297
7.7511,0.237909880805515
7.7512,0.221162555355691
7.7513,0.236943688955083
7.7514,0.2446732237504
7.7515,0.272048659340569
7.7516,0.283965025355461
7.7517,0.305221245724014
7.7518,0.294915199498692
7.7519,0.322290634730295
7.752,0.272048659340569
7.7521,0.275913426700918
7.7522,0.26142054907831
7.7523,0.26142054907831
7.7524,0.275913426700918
7.7525,0.335173192428959
7.7526,0.342258599148865
7.7527,0.349344005859104
7.7528,0.338071767906479
7.7529,0.343868918856571
7.753,0.335495256370988
7.7531,0.321324442901483
7.7532,0.269150083817626
7.7533,0.23565543315405
7.7534,0.264641188555073
7.7535,0.297491711057436
7.7536,0.311984588545709
7.7537,0.294271071608749
7.7538,0.303610926002988
7.7539,0.286863600866936
7.754,0.307475693332425
7.7541,0.303288862058709
7.7542,0.311662524602058
7.7543,0.31520522798093
7.7544,0.358683860144894
7.7545,0.354497028915261
7.7546,0.337749703964615
7.7547,0.32551127415822
7.7548,0.374787057154356
7.7549,0.407637578934385
7.755,0.39217850987963
7.7551,0.393788829574261
7.7552,0.373176737455296
7.7553,0.401840428042351
7.7554,0.407315514996044
7.7555,0.398297724717413
7.7556,0.405383131365739
7.7557,0.396043277146168
7.7558,0.376719440792698
7.7559,0.427283479151781
7.756,0.431148246403118
7.7561,0.442098420274873
7.7562,0.419876008582741
7.7563,0.422130456147805
7.7564,0.436301269402834
7.7565,0.462066384371341
7.7566,0.402484555919444
7.7567,0.40055217228801
7.7568,0.374464993214576
7.7569,0.396043277146168
7.757,0.386059295036805
7.7571,0.351598453446766
7.7572,0.328409849641472
7.7573,0.294271071608749
7.7574,0.273014851181038
7.7575,0.296203455278268
7.7576,0.278812002218534
7.7577,0.291694560047948
7.7578,0.307475693332425
7.7579,0.295559327388531
7.758,0.320036187129419
7.7581,0.309730140939652
7.7582,0.300390286559086
7.7583,0.311018396714685
7.7584,0.306187437556336
7.7585,0.333562872718499
7.7586,0.350310197682502
7.7587,0.318425867413828
7.7588,0.296203455278268
7.7589,0.307797757276387
7.759,0.282676769571883
7.7591,0.212144764690528
7.7592,0.198618078640151
7.7593,0.186057584391741
7.7594,0.2008725263197
7.7595,0.177683921526857
7.7596,0.174463281956319
7.7597,0.174141217999045
7.7598,0.183803136699955
7.7599,0.154173252568018
7.76,0.132917031122586
7.7601,0.127764007712678
7.7602,0.12164479239818
7.7603,0.116491768962433
7.7604,0.126475751858376
7.7605,0.104897466187648
7.7606,0.0942693552555617
7.7607,0.0991003147767861
7.7608,0.0987782508090505
7.7609,0.103931274286936
7.761,0.127764007712678
7.7611,0.127764007712678
7.7612,0.156749764245543
7.7613,0.139358310368734
7.7614,0.113271129308975
7.7615,0.0987782508090505
7.7616,0.123899240147566
7.7617,0.0994223787444725
7.7618,0.0549775507218567
7.7619,0.0356537121332356
7.762,0.0659277258344015
7.7621,0.0800985405948404
7.7622,0.102965082385786
7.7623,0.0707586854232317
7.7624,0.0552996146966474
7.7625,0.0272800486817618
7.7626,0.0581981904673158
7.7627,0.0552996146966474
7.7628,0.016007809358272
7.7629,-0.0242501888294109
7.763,-0.0210295489385645
7.7631,-0.0413195803587717
7.7632,-0.0490491162063944
7.7633,-0.0426078363307165
7.7634,-0.0902733080589728
7.7635,-0.0976807801551595
7.7636,-0.0922056920803738
7.7637,-0.123123836782139
7.7638,-0.120547324697396
7.7639,-0.116360492570004
7.764,-0.123123836782139
7.7641,-0.111207468430638
7.7642,-0.103799996263682
7.7643,-0.0876967960344688
7.7644,-0.13729465333565
7.7645,-0.152431662093055
7.7646,-0.131497501091229
7.7647,-0.138904973408
7.7648,-0.167890735047818
7.7649,-0.201063329734632
7.765,-0.202995713918639
7.7651,-0.166602478961155
7.7652,-0.16209358266805
7.7653,-0.227150516481321
7.7654,-0.231337348975664
7.7655,-0.234880053405696
7.7656,-0.208470802456746
7.7657,-0.214912083121729
7.7658,-0.209114930521687
7.7659,-0.185926320398866
7.766,-0.168534863091637
7.7661,-0.133751949183306
7.7662,-0.0934939480960853
7.7663,-0.100579356203268
7.7664,-0.0596772280600386
7.7665,-0.0329459165668038
7.7666,0.00441350597841547
7.7667,0.0195505131533927
7.7668,0.0594864463639813
7.7669,0.121000664469366
7.767,0.105863658087924
7.7671,0.0865398199982407
7.7672,0.0929810993813481
7.7673,0.0962017390653888
7.7674,0.123899240147566
7.7675,0.170920578424088
7.7676,0.140968630177485
7.7677,0.183803136699955
7.7678,0.1754294738279
7.7679,0.190566479769629
7.768,0.190566479769629
7.7681,0.213433020501527
7.7682,0.274947234861211
7.7683,0.278167874325925
7.7684,0.221806683259299
7.7685,0.248215927192117
7.7686,0.300068222614559
7.7687,0.282354705625921
7.7688,0.256267525909297
7.7689,0.272692787234243
7.769,0.283642961409607
7.7691,0.24692767139557
7.7692,0.19539743909477
7.7693,0.18251488087522
7.7694,0.144189269791679
7.7695,0.0952355471606988
7.7696,0.0714028133675115
7.7697,0.0862177560285552
7.7698,0.0968458670016009
7.7699,0.0768779008854336
7.77,0.0945914192239905
7.7701,0.0543334227721118
7.7702,0.0498245271177641
7.7703,0.0298565605171189
7.7704,-0.0326238525756883
7.7705,-0.0632199320277183
7.7706,-0.0657964440094345
7.7707,-0.0973587161501791
7.7708,-0.157906750410036
7.7709,-0.156940558352421
7.771,-0.191079344832683
7.7711,-0.179485039886639
7.7712,-0.173043759407505
7.7713,-0.206860482295901
7.7714,-0.247118486974812
7.7715,-0.242287526339867
7.7716,-0.253237703808443
7.7717,-0.278036635528186
7.7718,-0.281579340104946
7.7719,-0.308632720892167
7.772,-0.314107809944631
7.7721,-0.346314216720593
7.7722,-0.392047316118123
7.7723,-0.348568665232959
7.7724,-0.373367599205258
7.7725,-0.380130944942455
7.7726,-0.417168315300891
7.7727,-0.418778635784229
7.7728,-0.430372943346861
7.7729,-0.476428110961241
7.773,-0.486412098661746
7.7731,-0.484157649816139
7.7732,-0.518618511388437
7.7733,-0.513465485270162
7.7734,-0.500260855985323
7.7735,-0.530212820270422
7.7736,-0.558554464889414
7.7737,-0.576267993279278
7.7738,-0.547282219752941
7.7739,-0.562741298837198
7.774,-0.593981522063797
7.7741,-0.618458398863814
7.7742,-0.681905043729548
7.7743,-0.715721785629948
7.7744,-0.734723574645359
7.7745,-0.756623942292325
7.7746,-0.794627523121303
7.7747,-0.846801934267631
7.7748,-0.866125791324612
7.7749,-0.886093777575544
7.775,-0.880296620210873
7.7751,-0.910570664828203
7.7752,-0.924419430419904
7.7753,-0.955337605918619
7.7754,-1.00525758021563
7.7755,-1.04680388473375
7.7756,-1.07514555161244
7.7757,-1.0677380703551
7.7758,-1.10702992861542
7.7759,-1.12087869901583
7.776,-1.12442140778099
7.7761,-1.13247301869937
7.7762,-1.14374527419247
7.7763,-1.16467946361251
7.7764,-1.17949442894601
7.7765,-1.20171687775294
7.7766,-1.21331119925757
7.7767,-1.18400333152391
7.7768,-1.22651584352041
7.7769,-1.26065468153966
7.777,-1.24455145576379
7.7771,-1.21427739272838
7.7772,-1.24519558478467
7.7773,-1.25260306858553
7.7774,-1.23005855301635
7.7775,-1.24551764929543
7.7776,-1.22812616601543
7.7777,-1.2371439720842
7.7778,-1.22522758552815
7.7779,-1.25228100407012
7.778,-1.24261906870621
7.7781,-1.22941442401521
7.7782,-1.2274820370168
7.7783,-1.20010655534287
7.7784,-1.20815816744471
7.7785,-1.21846423112345
7.7786,-1.24261906870621
7.7787,-1.28899636020024
7.7788,-1.28899636020024
7.7789,-1.25389132664928
7.779,-1.26484152032833
7.7791,-1.2458397138064
7.7792,-1.27869029504043
7.7793,-1.3308647522019
7.7794,-1.29511558649355
7.7795,-1.28352126305661
7.7796,-1.28609777935172
7.7797,-1.29286113469218
7.7798,-1.26806216557491
7.7799,-1.29672590921532
7.78,-1.24970448795449
7.7801,-1.23617777856897
7.7802,-1.22458345653327
7.7803,-1.22844823051506
7.7804,-1.22619377902203
7.7805,-1.20880229641842
7.7806,-1.16564565699081
7.7807,-1.13440540533811
7.7808,-1.14116875862979
7.7809,-1.13182888982137
7.781,-1.08223096856155
7.7811,-1.0828750973797
7.7812,-1.09511354507021
7.7813,-1.09253702974387
7.7814,-1.0931811585743
7.7815,-1.11636979698536
7.7816,-1.12152282788045
7.7817,-1.12055663458381
7.7818,-1.08416335501828
7.7819,-1.08963845001647
7.782,-1.10155483344011
7.7821,-1.10187689786064
7.7822,-1.0651615551587
7.7823,-1.05582168767312
7.7824,-1.03295511621926
7.7825,-1.0281241505392
7.7826,-1.02941240804981
7.7827,-1.04680388473375
7.7828,-1.0828750973797
7.7829,-1.04712594912191
7.783,-1.04390530524871
7.7831,-1.03714195317572
7.7832,-1.03295511621926
7.7833,-0.996883906806332
7.7834,-0.979492431654262
7.7835,-0.975949723817094
7.7836,-0.986577847393614
7.7837,-0.97337320904
7.7838,-0.979492431654262
7.7839,-0.987221976101502
7.784,-0.976593852513153
7.7841,-0.988832297874368
7.7842,-1.02586969990274
7.7843,-0.954371412909901
7.7844,-0.943743289918292
7.7845,-0.929894523881092
7.7846,-0.933115167116899
7.7847,-0.935369617392278
7.7848,-0.972084951655731
7.7849,-0.998172164245932
7.785,-0.972407016001531
7.7851,-0.985933718686447
7.7852,-0.998494228606285
7.7853,-1.01105473880181
7.7854,-1.03134479432128
7.7855,-1.0390743394739
7.7856,-1.08802812795242
7.7857,-1.0844854194284
7.7858,-1.08802812795242
7.7859,-1.10509754207656
7.786,-1.12603172995483
7.7861,-1.1466438542157
7.7862,-1.16467946361251
7.7863,-1.21202294129939
7.7864,-1.19849623293793
7.7865,-1.21009055436833
7.7866,-1.19173287889319
7.7867,-1.1749855264079
7.7868,-1.16661185037091
7.7869,-1.13472746977859
7.787,-1.13021856762981
7.7871,-1.17273107515374
7.7872,-1.17208694622579
7.7873,-1.16274707686136
7.7874,-1.17981649341454
7.7875,-1.18593571835522
7.7876,-1.1749855264079
7.7877,-1.19849623293793
7.7878,-1.20815816744471
7.7879,-1.24068668165621
7.788,-1.24712797185238
7.7881,-1.30670991021164
7.7882,-1.32410139631989
7.7883,-1.2957597155816
7.7884,-1.33633984989212
7.7885,-1.33537365617742
7.7886,-1.29898036103492
7.7887,-1.29994655467515
7.7888,-1.29060668290143
7.7889,-1.3315088813386
7.789,-1.3389163664744
7.7891,-1.33215301047619
7.7892,-1.33344126875403
7.7893,-1.36403740389993
7.7894,-1.34439146425898
7.7895,-1.36049469341119
7.7896,-1.40493960880217
7.7897,-1.38175095675344
7.7898,-1.41750012915913
7.7899,-1.44455355882003
7.79,-1.45582582166663
7.7901,-1.49125293536221
7.7902,-1.4790144775773
7.7903,-1.50832236390587
7.7904,-1.49640597032279
7.7905,-1.53666405808995
7.7906,-1.55244522953916
7.7907,-1.54535980554983
7.7908,-1.56532781891833
7.7909,-1.52378146958989
7.791,-1.52861244023144
7.7911,-1.51572985197612
7.7912,-1.51540778727474
7.7913,-1.53118895792947
7.7914,-1.55244522953916
7.7915,-1.59560190553478
7.7916,-1.61073894967958
7.7917,-1.57112498426902
7.7918,-1.58722822178021
7.7919,-1.58722822178021
7.792,-1.57627802020434
7.7921,-1.59077093411708
7.7922,-1.63070696622194
7.7923,-1.64262336366144
7.7924,-1.63102903101296
7.7925,-1.64294542846201
7.7926,-1.63940271566997
7.7927,-1.66420170587359
7.7928,-1.6687106133493
7.7929,-1.63102903101296
7.793,-1.63424967893734
7.7931,-1.61395959744248
7.7932,-1.61750231001115
7.7933,-1.62523186481391
7.7934,-1.59302538743826
7.7935,-1.61621405089169
7.7936,-1.62684218874974
7.7937,-1.61267133833426
7.7938,-1.6091286258077
7.7939,-1.60526384854114
7.794,-1.60236526561525
7.7941,-1.57305737273725
7.7942,-1.57917660294615
7.7943,-1.59656809982515
7.7944,-1.56371749522416
7.7945,-1.53859644639884
7.7946,-1.56049684785451
7.7947,-1.58722822178021
7.7948,-1.5759559554565
7.7949,-1.57273530799192
7.795,-1.54922458225644
7.7951,-1.51476365787271
7.7952,-1.52345940488241
7.7953,-1.52957863436637
7.7954,-1.51025475208572
7.7955,-1.49543977626299
7.7956,-1.50188107003607
7.7957,-1.48996467663169
7.7958,-1.45389343372956
7.7959,-1.46999666679891
7.796,-1.45936853290669
7.7961,-1.46065679154653
7.7962,-1.45292723976421
7.7963,-1.41041470737613
7.7964,-1.44262117093241
7.7965,-1.39817625183202
7.7966,-1.41234709512404
7.7967,-1.38625986122572
7.7968,-1.37241108334538
7.7969,-1.30477752290569
7.797,-1.30123481286517
7.7971,-1.34052668934554
7.7972,-1.29865829648861
7.7973,-1.27160487537082
7.7974,-1.26419739128157
7.7975,-1.27546964972319
7.7976,-1.27321519801389
7.7977,-1.23166887552287
7.7978,-1.22393932753922
7.7979,-1.21234500578863
7.798,-1.1901225565149
7.7981,-1.14728798311194
7.7982,-1.11926837685769
7.7983,-1.08094271092757
7.7984,-1.04358324086241
7.7985,-1.05227897935796
7.7986,-1.08802812795242
7.7987,-1.06483949076
7.7988,-1.07289110078434
7.7989,-1.03231098745951
7.799,-1.0104106100671
7.7991,-0.983357203864962
7.7992,-1.0075120307699
7.7993,-1.03681988879334
7.7994,-1.00429138712367
7.7995,-0.964355407409867
7.7996,-0.940200582296762
7.7997,-0.933759295766139
7.7998,-0.895433642333034
7.7999,-0.874499462900321
7.8,-0.826290406938369
7.8001,-0.826290406938369
7.8002,-0.791829530860896
7.8003,-0.808254808016725
7.8004,-0.763809941357368
7.8005,-0.72097539872084
7.8006,-0.707770765809808
7.8007,-0.686192463777554
7.8008,-0.705194252099914
7.8009,-0.726128426265804
7.801,-0.707770765809808
7.8011,-0.668478932742651
7.8012,-0.662681777224842
7.8013,-0.696498518398092
7.8014,-0.6378828346905
7.8015,-0.633051871955134
7.8016,-0.631763615230943
7.8017,-0.612117700458348
7.8018,-0.598591005334183
7.8019,-0.607608802057263
7.802,-0.583131925480694
7.8021,-0.579911283882899
7.8022,-0.586996695415443
7.8023,-0.565418396854811
7.8024,-0.602455775345485
7.8025,-0.554468215718959
7.8026,-0.51098955677525
7.8027,-0.499395248106322
7.8028,-0.485546490736049
7.8029,-0.499717312233877
7.803,-0.513244005701562
7.8031,-0.493920157956473
7.8032,-0.471375669470548
7.8033,-0.490377452584042
7.8034,-0.49585254271124
7.8035,-0.481037593035619
7.8036,-0.483936170126058
7.8037,-0.44625466869703
7.8038,-0.448187053346782
7.8039,-0.436914809614915
7.804,-0.411471745703034
7.8041,-0.393758220605282
7.8042,-0.390215515625491
7.8043,-0.364772452971535
7.8044,-0.325802700049721
7.8045,-0.279103411296001
7.8046,-0.280713731563866
7.8047,-0.264610528991701
7.8048,-0.247863198564347
7.8049,-0.266864977337632
7.805,-0.262356080650347
7.8051,-0.228539356070351
7.8052,-0.215334730551084
7.8053,-0.192146120237419
7.8054,-0.177975303040614
7.8055,-0.17346640669367
7.8056,-0.130309828175244
7.8057,-0.107765347417264
7.8058,-0.081034034990861
7.8059,-0.11034185948515
7.806,-0.0791016509793508
7.8061,-0.073626562960613
7.8062,-0.0665411549665604
7.8063,-0.0546247870523194
7.8064,-0.0388436513091922
7.8065,-0.0111461481419416
7.8066,0.0171954825243019
7.8067,0.0584196717685359
7.8068,0.0387737691983275
7.8069,0.0200940583614663
7.807,0.049401880450575
7.8071,0.0171954825243019
7.8072,0.00560117912714549
7.8073,0.00431292318928745
7.8074,0.0490798164741316
7.8075,0.0539107761149562
7.8076,0.0300780417640736
7.8077,0.0732346145555646
7.8078,0.0400620251109651
7.8079,0.0242808901178041
7.808,0.0200940583614663
7.8081,0.0268574019629241
7.8082,0.0329766175801501
7.8083,0.00849975498376594
7.8084,0.0162292905775104
7.8085,0.0165513545598338
7.8086,-0.0030945484724367
7.8087,-0.0069593163089283
7.8088,-0.0398098432888464
7.8089,-0.0549468510487658
7.809,-0.0369112673516718
7.8091,-0.0401319072821972
7.8092,-0.0794237149810911
7.8093,-0.081678162995268
7.8094,-0.0510820830958999
7.8095,0.0072114990480976
7.8096,0.0271794659433011
7.8097,0.0803200219357325
7.8098,0.0738787425002657
7.8099,0.0989997321822232
7.81,0.137325344069533
7.8101,0.162446333023434
7.8102,0.184990810071382
7.8103,0.219129589238487
7.8104,0.19883956016155
7.8105,0.213332438088341
7.8106,0.26035377487911
7.8107,0.288373338268612
7.8108,0.25842139118892
7.8109,0.259387583034152
7.811,0.190465897324855
7.8111,0.183058426332157
7.8112,0.175650955318524
7.8113,0.168565548241981
7.8114,0.16663316449038
7.8115,0.176617147191071
7.8116,0.174040635530135
7.8117,0.158903629468932
7.8118,0.168887612200436
7.8119,0.132816448587772
7.812,0.138613599919837
7.8121,0.107373395341459
7.8122,0.148597582735515
7.8123,0.171786187824682
7.8124,0.178227466977843
7.8125,0.162124269064145
7.8126,0.16663316449038
7.8127,0.168565548241981
7.8128,0.116391186399238
7.8129,0.125408977419704
7.813,0.141834239542459
7.8131,0.126697233276775
7.8132,0.151818222344457
7.8133,0.150529966501403
7.8134,0.175650955318524
7.8135,0.14569900708373
7.8136,0.183380490288793
7.8137,0.22460467642536
7.8138,0.216553077617623
7.8139,0.233300403113461
7.814,0.283542379078766
7.8141,0.255522815651574
7.8142,0.29062778588846
7.8143,0.305120663414042
7.8144,0.306408919191602
7.8145,0.298357320575258
7.8146,0.307697174968767
7.8147,0.331529906777981
7.8148,0.279355547775901
7.8149,0.263252350412354
7.815,0.256811071446257
7.8151,0.249403600620044
7.8152,0.289339530105851
7.8153,0.301900023968393
7.8154,0.304798599469589
7.8155,0.292238105616124
7.8156,0.3318519707205
7.8157,0.281609995401103
7.8158,0.292560169561577
7.8159,0.319935604832566
7.816,0.281932059347449
7.8161,0.300933832134207
7.8162,0.30995162257786
7.8163,0.290949849834046
7.8164,0.312850198073517
7.8165,0.322190052435353
7.8166,0.346988975995072
7.8167,0.325410691865967
7.8168,0.316392901454466
7.8169,0.337004993797868
7.817,0.267439181733878
7.8171,0.300289704244623
7.8172,0.32025766877589
7.8173,0.30673098313593
7.8174,0.292238105616124
7.8175,0.318325285115597
7.8176,0.340225633218476
7.8177,0.339903569276509
7.8178,0.359549469700079
7.8179,0.389501416119089
7.818,0.386924904604629
7.8181,0.37661885853696
7.8182,0.35085374329203
7.8183,0.336682929855692
7.8184,0.336038801971277
7.8185,0.360193597581615
7.8186,0.417198914844021
7.8187,0.437166878987301
7.8188,0.431691792048624
7.8189,0.422674001790507
7.819,0.429115280547115
7.8191,0.451659756165857
7.8192,0.463898185771707
7.8193,0.454880395536748
7.8194,0.469373272697806
7.8195,0.478068998989227
7.8196,0.484832341658234
7.8197,0.482577894102077
7.8198,0.464864377582312
7.8199,0.458745162780912
7.82,0.491595684325797
7.8201,0.503512049975754
7.8202,0.488375044960448
7.8203,0.508665072958969
7.8204,0.514140159878525
7.8205,0.52831097308289
7.8206,0.543770042037541
7.8207,0.543447978100911
7.8208,0.535396379686287
7.8209,0.502867922102837
7.821,0.525412397654524
7.8211,0.532175740320962
7.8212,0.5192931828617
7.8213,0.509953328704751
7.8214,0.498681090928754
7.8215,0.526700653400446
7.8216,0.501257602420524
7.8217,0.473238039938855
7.8218,0.498036963055797
7.8219,0.474204231749009
7.822,0.470339464508135
7.8221,0.455202459473798
7.8222,0.480645510482375
7.8223,0.481611702292242
7.8224,0.472593912065395
7.8225,0.491273620389274
7.8226,0.493528067944886
7.8227,0.45455833159969
7.8228,0.50061347454759
7.8229,0.48966330070662
7.823,0.518326991052343
7.8231,0.485798533467966
7.8232,0.46905120876102
7.8233,0.480323446545745
7.8234,0.485798533467966
7.8235,0.479357254735833
7.8236,0.505766497530934
7.8237,0.501901730293453
7.8238,0.518649054988795
7.8239,0.533141932130532
7.824,0.538939082988469
7.8241,0.514140159878525
7.8242,0.52831097308289
7.8243,0.519615246798155
7.8244,0.538294955115318
7.8245,0.571789604543222
7.8246,0.594012016223093
7.8247,0.628472857621234
7.8248,0.620099195212484
7.8249,0.651661461266207
7.825,0.604318062234718
7.8251,0.63555826428216
7.8252,0.643287798829569
7.8253,0.635236200342874
7.8254,0.618488875519522
7.8255,0.634270008525105
7.8256,0.667120530410336
7.8257,0.696428349117579
7.8258,0.714785993894044
7.8259,0.678714832296405
7.826,0.713819802061791
7.8261,0.670985297702916
7.8262,0.653593844907019
7.8263,0.64457605458834
7.8264,0.618810939458089
7.8265,0.59175756865944
7.8266,0.573399924228867
7.8267,0.555042279822276
7.8268,0.542803850227663
7.8269,0.51220777625986
7.827,0.499647282738179
7.8271,0.51220777625986
7.8272,0.534108123940125
7.8273,0.505766497530934
7.8274,0.515428415624307
7.8275,0.525734461591002
7.8276,0.513173968069192
7.8277,0.466474697266539
7.8278,0.410757636079214
7.8279,0.416232723029599
7.828,0.424606385417927
7.8281,0.414944467276874
7.8282,0.430725600235632
7.8283,0.426216705107154
7.8284,0.405604613063875
7.8285,0.418487170596425
7.8286,0.38402632914971
7.8287,0.362770109107033
7.8288,0.344090400520481
7.8289,0.340547697160423
7.829,0.338293249566362
7.8291,0.340547697160423
7.8292,0.357295022114122
7.8293,0.329919587065064
7.8294,0.305120663414042
7.8295,0.293204297452404
7.8296,0.335716738029038
7.8297,0.333140226490356
7.8298,0.293204297452404
7.8299,0.28708508248525
7.83,0.30673098313593
7.8301,0.288051274322812
7.8302,0.322190052435353
7.8303,0.288051274322812
7.8304,0.273558396733338
7.8305,0.281932059347449
7.8306,0.268405373576597
7.8307,0.30415447158061
7.8308,0.265828861995423
7.8309,0.285796826701456
7.831,0.264862670151996
7.8311,0.297069064795168
7.8312,0.275168716468306
7.8313,0.289017466160131
7.8314,0.297069064795168
7.8315,0.273236332786259
7.8316,0.243606449527026
7.8317,0.232012147309377
7.8318,0.261319966723796
7.8319,0.274524588574405
7.832,0.280965867508327
7.8321,0.326698947637582
7.8322,0.314460517792486
7.8323,0.318647349059038
7.8324,0.319935604832566
7.8325,0.299645576354937
7.8326,0.277101100149328
7.8327,0.271303949103177
7.8328,0.282576187240059
7.8329,0.28708508248525
7.833,0.298357320575258
7.8331,0.299645576354937
7.8332,0.300933832134207
7.8333,0.269371565419053
7.8334,0.270659821208585
7.8335,0.268727437524112
7.8336,0.295136681124256
7.8337,0.277423164096066
7.8338,0.284830634863324
7.8339,0.282254123293768
7.834,0.289339530105851
7.8341,0.328309267351599
7.8342,0.348921359643904
7.8343,0.311884006241849
7.8344,0.291593977725138
7.8345,0.221706100857095
7.8346,0.23104595545596
7.8347,0.252624240111728
7.8348,0.229113571748214
7.8349,0.23007976360224
7.835,0.251013920366278
7.8351,0.237487234473041
7.8352,0.198195432251948
7.8353,0.214942757853429
7.8354,0.260997902775598
7.8355,0.200449879934896
7.8356,0.19690717643229
7.8357,0.215586885759213
7.8358,0.237165170522503
7.8359,0.199805752025671
7.836,0.228147379893882
7.8361,0.277101100149328
7.8362,0.299001448465148
7.8363,0.271303949103177
7.8364,0.269371565419053
7.8365,0.24747121692352
7.8366,0.254878687754047
7.8367,0.268405373576597
7.8368,0.319291476945848
7.8369,0.301255896078961
7.837,0.271948076997653
7.8371,0.253912495907525
7.8372,0.243284385577109
7.8373,0.233622467064398
7.8374,0.254556623805238
7.8375,0.2523021761627
7.8376,0.318647349059038
7.8377,0.27162601305043
7.8378,0.249403600620044
7.8379,0.233944531015301
7.838,0.281287931454729
7.8381,0.295136681124256
7.8382,0.245216769276126
7.8383,0.229757699650932
7.8384,0.196585112477281
7.8385,0.195296856656865
7.8386,0.196585112477281
7.8387,0.196263048522234
7.8388,0.226214996184294
7.8389,0.208823542741302
7.839,0.188533513589622
7.8391,0.197551304342195
7.8392,0.205924967157294
7.8393,0.160836013226567
7.8394,0.161158077186025
7.8395,0.164700780737282
7.8396,0.163412524901049
7.8397,0.185957001940463
7.8398,0.183380490288793
7.8399,0.201416071798454
7.84,0.206569095065109
7.8401,0.193364472925097
7.8402,0.196263048522234
7.8403,0.176939211148506
7.8404,0.19883956016155
7.8405,0.210755926462331
7.8406,0.224926740377215
7.8407,0.273880460680389
7.8408,0.282898251186322
7.8409,0.286440954593407
7.841,0.267117117786246
7.8411,0.291593977725138
7.8412,0.285796826701456
7.8413,0.269049501471597
7.8414,0.275490780415214
7.8415,0.240707873976608
7.8416,0.230723891504754
7.8417,0.271948076997653
7.8418,0.284830634863324
7.8419,0.277101100149328
7.842,0.279677611722442
7.8421,0.293848425343126
7.8422,0.294814617179013
7.8423,0.300611768189428
7.8424,0.316714965398046
7.8425,0.342802144753473
7.8426,0.320579732719191
7.8427,0.307053047080234
7.8428,0.369211387915593
7.8429,0.401739845800228
7.843,0.413334147585705
7.8431,0.454880395536748
7.8432,0.457456907032963
7.8433,0.456490715221933
7.8434,0.501257602420524
7.8435,0.477746935052566
7.8436,0.445862605296397
7.8437,0.401739845800228
7.8438,0.394654439145198
7.8439,0.390789671875964
7.844,0.413978275462208
7.8441,0.41558859515326
7.8442,0.417843042720246
7.8443,0.381127753693543
7.8444,0.412045891832556
7.8445,0.406570804879496
7.8446,0.408181124571944
7.8447,0.429759408422552
7.8448,0.433302111736752
7.8449,0.372109963377184
7.845,0.366634876393011
7.8451,0.308019238912996
7.8452,0.293848425343126
7.8453,0.270981885155896
7.8454,0.274202524627411
7.8455,0.280965867508327
7.8456,0.301900023968393
7.8457,0.279677611722442
7.8458,0.311884006241849
7.8459,0.330241651007691
7.846,0.274524588574405
7.8461,0.259709646982502
7.8462,0.291593977725138
7.8463,0.279999675668955
7.8464,0.300289704244623
7.8465,0.272914268839151
7.8466,0.289983657997209
7.8467,0.287729210376985
7.8468,0.291271913779605
7.8469,0.309629558633777
7.847,0.328309267351599
7.8471,0.328953395237051
7.8472,0.314460517792486
7.8473,0.317681157228647
7.8474,0.291593977725138
7.8475,0.26969362936648
7.8476,0.291916041670644
7.8477,0.264540606204127
7.8478,0.246505025074829
7.8479,0.254234559856397
7.848,0.291916041670644
7.8481,0.285152698809395
7.8482,0.327665139466059
7.8483,0.304798599469589
7.8484,0.297069064795168
7.8485,0.2841865069711
7.8486,0.228791507796804
7.8487,0.248437408771925
7.8488,0.248759472721329
7.8489,0.250047728518632
7.849,0.21140005436905
7.8491,0.303510343691531
7.8492,0.265506798047644
7.8493,0.258099327240449
7.8494,0.229113571748214
7.8495,0.228791507796804
7.8496,0.238131362374017
7.8497,0.202382263661676
7.8498,0.207213222972776
7.8499,0.221061972952654
7.85,0.179515722806538
7.8501,0.20978973460198
7.8502,0.199483688071001
7.8503,0.199805752025671
7.8504,0.196263048522234
7.8505,0.16405665281925
7.8506,0.168565548241981
7.8507,0.177905403020569
7.8508,0.17114205990847
7.8509,0.238775490274862
7.851,0.157937437589542
7.8511,0.133460576514282
7.8512,0.11542499450199
7.8513,0.105441011538427
7.8514,0.10769545930846
7.8515,0.106085139472966
7.8516,0.096101156465466
7.8517,0.0703360388017921
7.8518,0.0796758939931257
7.8519,0.0864392373801798
7.852,0.0304001057438691
7.8521,0.0271794659433011
7.8522,0.0297559777842202
7.8523,0.0516563282841224
7.8524,0.0703360388017921
7.8525,0.0397399611328909
7.8526,0.020416122343077
7.8527,0.0390958331765722
7.8528,0.0619623754888401
7.8529,0.0613182475401827
7.853,0.0423164729558965
7.8531,0.0275015299236197
7.8532,0.01139833083548
7.8533,-0.00406074043072042
7.8534,0.0191278664162788
7.8535,0.0384517052200258
7.8536,0.00849975498376594
7.8537,-0.0172653639170402
7.8538,-0.0246728356755697
7.8539,-0.0146888520089492
7.854,0.00173641131063722
7.8541,-0.0256390276465814
7.8542,-0.0449628671904518
7.8543,-0.0375553953372474
7.8544,-0.0568792350288776
7.8545,-0.0191977478507815
7.8546,-0.0375553953372474
7.8547,-0.0304699875103928
7.8548,-0.0204860038078866
7.8549,-0.0191977478507815
7.855,0.0072114990480976
7.8551,0.0323324896214264
7.8552,-0.00631518833555718
7.8553,0.000448155369840074
7.8554,-0.0204860038078866
7.8555,0.0242808901178041
7.8556,0.0307221697236066
7.8557,0.0271794659433011
7.8558,0.0155851626126846
7.8559,0.0458591767066285
7.856,0.0725904866106523
7.8561,0.0703360388017921
7.8562,0.0709801667474459
7.8563,0.0551990320170765
7.8564,0.0770993822206152
7.8565,0.0671153990703293
7.8566,0.0886936851708295
7.8567,0.0816082778203231
7.8568,0.0584196717685359
7.8569,0.0445709207980592
7.857,0.0932025807446561
7.8571,0.0745228704447561
7.8572,0.0983556042455148
7.8573,0.0986776682138939
7.8574,0.0713022307201931
7.8575,0.0803200219357325
7.8576,0.0761331903050615
7.8577,0.0484356885210777
7.8578,0.0893378131105562
7.8579,0.0503680723795713
7.858,0.0719463586655286
7.8581,0.0696919108559259
7.8582,0.0754890623610969
7.8583,0.0928805167754258
7.8584,0.106407203440162
7.8585,0.10898371517598
7.8586,0.113492610706205
7.8587,0.0993217961505028
7.8588,0.0983556042455148
7.8589,0.0964232204341942
7.859,0.103830691701222
7.8591,0.0774214461923617
7.8592,0.0938467086829655
7.8593,0.0597079276675896
7.8594,0.0593858636929079
7.8595,0.0906260689893998
7.8596,0.086761301350426
7.8597,0.10286449979831
7.8598,0.107051331374409
7.8599,0.130239936879901
7.86,0.141190111618292
7.8601,0.130239936879901
7.8602,0.15375060610774
7.8603,0.146343135006656
7.8604,0.149563774618655
7.8605,0.180803978634593
7.8606,0.207857350880296
7.8607,0.200771943889453
7.8608,0.220417845048072
7.8609,0.22331642061759
7.861,0.244894705326371
7.8611,0.263252350412354
7.8612,0.268727437524112
7.8613,0.213332438088341
7.8614,0.250369792467879
7.8615,0.288051274322812
7.8616,0.317359093285137
7.8617,0.273236332786259
7.8618,0.294814617179013
7.8619,0.328953395237051
7.862,0.326054819751819
7.8621,0.277423164096066
7.8622,0.240707873976608
7.8623,0.22460467642536
7.8624,0.295136681124256
7.8625,0.264862670151996
7.8626,0.240707873976608
7.8627,0.261642030671964
7.8628,0.199805752025671
7.8629,0.246827089024424
7.863,0.229113571748214
7.8631,0.204636711341224
7.8632,0.19175415314757
7.8633,0.221706100857095
7.8634,0.230723891504754
7.8635,0.198517496206768
7.8636,0.19111002523629
7.8637,0.180803978634593
7.8638,0.190465897324855
7.8639,0.203992583432967
7.864,0.165666972614018
7.8641,0.173396507614495
7.8642,0.155038861949067
7.8643,0.182736362375481
7.8644,0.183058426332157
7.8645,0.151174094423017
7.8646,0.153428542147301
7.8647,0.165666972614018
7.8648,0.15986982134794
7.8649,0.161802205104814
7.865,0.17243031574073
7.8651,0.190465897324855
7.8652,0.149885838579614
7.8653,0.15020790254053
7.8654,0.153428542147301
7.8655,0.199805752025671
7.8656,0.133782640477469
7.8657,0.118323570192451
7.8658,0.137647408032176
7.8659,0.086761301350426
7.866,0.0864392373801798
7.8661,0.0680815909903284
7.8662,0.0684036549635545
7.8663,0.0600299916422169
7.8664,0.080642085906958
7.8665,0.0883716212008898
7.8666,0.0809641498781315
7.8667,0.104796883603692
7.8668,0.107373395341459
7.8669,0.0774214461923617
7.867,0.0938467086829655
7.8671,0.104474819636251
7.8672,0.086761301350426
7.8673,0.0964232204341942
7.8674,0.0893378131105562
7.8675,0.0922363888368139
7.8676,0.103508627733634
7.8677,0.0845068535576268
7.8678,0.0993217961505028
7.8679,0.10769545930846
7.868,0.106407203440162
7.8681,0.0816082778203231
7.8682,0.062606503437281
7.8683,0.02782359390388
7.8684,0.0487577524976325
7.8685,0.0890157491407183
7.8686,0.0713022307201931
7.8687,0.0767773182488163
7.8688,0.0242808901178041
7.8689,0.0471474326143005
7.869,0.049401880450575
7.8691,0.0361972573703171
7.8692,0.0149410346476198
7.8693,0.00688943506402878
7.8694,0.0407061530669431
7.8695,0.0159072265951273
7.8696,-0.0172653639170402
7.8697,-0.0146888520089492
7.8698,-0.00728138029570749
7.8699,-0.0240287076952181
7.87,-0.0430304832253482
7.8701,-0.0359450753738036
7.8702,-0.0691176669604784
7.8703,-0.0533365310672152
7.8704,-0.0658970269687776
7.8705,-0.108731539442161
7.8706,-0.108087411425488
7.8707,-0.101002003261715
7.8708,-0.0939165951336352
7.8709,-0.111630115520889
7.871,-0.0910180190914307
7.8711,-0.105510899361779
7.8712,-0.0942386591386885
7.8713,-0.0845767390186396
7.8714,-0.116783139675871
7.8715,-0.114528691605693
7.8716,-0.0913400830958294
7.8717,-0.0768472029691572
7.8718,-0.0848988030215947
7.8719,-0.0871532510442937
7.872,-0.075236882964002
7.8721,-0.081678162995268
7.8722,-0.0497938271137823
7.8723,-0.0646087709740461
7.8724,-0.0330464994437545
7.8725,-0.0256390276465814
7.8726,-0.0314361794849129
7.8727,-0.0733044989601467
7.8728,-0.0762030749668829
7.8729,-0.0678294109629613
7.873,-0.0797457789829027
7.8731,-0.0591336830087892
7.8732,-0.0675073469637565
7.8733,-0.0575233630227953
7.8734,-0.0729824349597508
7.8735,-0.0468952511579676
7.8736,-0.0749148189631831
7.8737,-0.096815171181744
7.8738,-0.0977813631990972
7.8739,-0.110663923493972
7.874,-0.130309828175244
7.8741,-0.162516229918168
7.8742,-0.151888117255197
7.8743,-0.159295589708
7.8744,-0.172822278645428
7.8745,-0.157363205585778
7.8746,-0.165092742092144
7.8747,-0.193112312324954
7.8748,-0.198587400835437
7.8749,-0.177653239015294
7.875,-0.154786693427323
7.8751,-0.156074949505907
7.8752,-0.192468184266513
7.8753,-0.158007333626196
7.8754,-0.144480644844642
7.8755,-0.153820501369227
7.8756,-0.163804486004506
7.8757,-0.185382775645962
7.8758,-0.177009110964903
7.8759,-0.161550037854268
7.876,-0.166380998181085
7.8761,-0.150277797162368
7.8762,-0.213402346341153
7.8763,-0.208571385830053
7.8764,-0.166380998181085
7.8765,-0.11259630754848
7.8766,-0.10615502737726
7.8767,-0.116783139675871
7.8768,-0.135140788386476
7.8769,-0.103256451309934
7.877,-0.133208404299889
7.8771,-0.102290259288825
7.8772,-0.107121219401039
7.8773,-0.119681715771549
7.8774,-0.124190611932626
7.8775,-0.12322441989685
7.8776,-0.107765347417264
7.8777,-0.114850755615492
7.8778,-0.122258227861762
7.8779,-0.123868547920624
7.878,-0.134496660357303
7.8781,-0.139971748615225
7.8782,-0.15092192519926
7.8783,-0.115494883635316
7.8784,-0.081034034990861
7.8785,-0.0417422272499484
7.8786,-0.0646087709740461
7.8787,-0.047539379147677
7.8788,-0.0417422272499484
7.8789,-0.015332979985591
7.879,0.0297559777842202
7.8791,0.0551990320170765
7.8792,0.0239588261369005
7.8793,-0.00373867644456382
7.8794,0.0249250180794354
7.8795,0.00302466725045218
7.8796,0.032010425641978
7.8797,0.0477915605678008
7.8798,0.0342648734969062
7.8799,0.0329766175801501
7.88,0.0426385369335175
7.8801,0.0674374630437158
7.8802,0.080642085906958
7.8803,0.077743510164056
7.8804,0.0977114763086074
7.8805,0.108339587242317
7.8806,0.140223919731707
7.8807,0.139257727844719
7.8808,0.0906260689893998
7.8809,0.101576243927072
7.881,0.101898307894956
7.8811,0.078065574135698
7.8812,0.0719463586655286
7.8813,0.0738787425002657
7.8814,0.102542435830575
7.8815,0.0951349645589811
7.8816,0.0890157491407183
7.8817,0.110594035009288
7.8818,0.151174094423017
7.8819,0.170497931992095
7.882,0.137969471994775
7.8821,0.144088687275642
7.8822,0.140223919731707
7.8823,0.146987262929407
7.8824,0.161802205104814
7.8825,0.181448106548382
7.8826,0.186601129852987
7.8827,0.197551304342195
7.8828,0.160513949267067
7.8829,0.135070896329763
7.883,0.149885838579614
7.8831,0.12766342516909
7.8832,0.0993217961505028
7.8833,0.101898307894956
7.8834,0.111560226908694
7.8835,0.0957790924966878
7.8836,0.0535887121392885
7.8837,0.0619623754888401
7.8838,0.0687257189367273
7.8839,0.0667933350968893
7.884,0.0848289175281807
7.8841,0.0854730454691342
7.8842,0.0928805167754258
7.8843,0.120255953983958
7.8844,0.102542435830575
7.8845,0.0851509814986831
7.8846,0.101898307894956
7.8847,0.0716242946928873
7.8848,0.0568093518934907
7.8849,0.0932025807446561
7.885,0.0526225202119541
7.8851,0.0313662976829079
7.8852,0.0809641498781315
7.8853,0.0977114763086074
7.8854,0.0790317660503109
7.8855,0.080642085906958
7.8856,0.0590637997181717
7.8857,0.0516563282841224
7.8858,0.080642085906958
7.8859,0.0754890623610969
7.886,0.0751669983890358
7.8861,0.0484356885210777
7.8862,0.0310442337032862
7.8863,0.0506901363557923
7.8864,0.0568093518934907
7.8865,0.0323324896214264
7.8866,0.0233146981749171
7.8867,0.0184837384525241
7.8868,-0.0127564680805434
7.8869,-0.0378774593301343
7.887,-0.0282155395721282
7.8871,0.00592324311145759
7.8872,0.00560117912714549
7.8873,-0.0166212359396362
7.8874,-0.0198418758292061
7.8875,-0.0311141154933409
7.8876,-0.0633205149804245
7.8877,-0.0826443550024144
7.8878,-0.0572012990258022
7.8879,-0.043996675207599
7.888,-0.0758810109658519
7.8881,-0.0919842111048446
7.8882,-0.0842546750157562
7.8883,-0.0578454270198569
7.8884,-0.0423863552375149
7.8885,-0.0858649950308913
7.8886,-0.0984254912110328
7.8887,-0.0858649950308913
7.8888,-0.0726603709594253
7.8889,-0.0945607231438148
7.889,-0.110663923493972
7.8891,-0.089729763074561
7.8892,-0.0852208670246217
7.8893,-0.0877973790514273
7.8894,-0.0945607231438148
7.8895,-0.081678162995268
7.8896,-0.0646087709740461
7.8897,-0.0916621471003007
7.8898,-0.115172819625366
7.8899,-0.12708918804409
7.89,-0.11324043556725
7.8901,-0.125800931993783
7.8902,-0.127733316069705
7.8903,-0.121936163850219
7.8904,-0.134174596342833
7.8905,-0.125156803969091
7.8906,-0.16122797383313
7.8907,-0.147701285017983
7.8908,-0.145124772878677
7.8909,-0.160905909812072
7.891,-0.178297367066017
7.8911,-0.159295589708
7.8912,-0.144158580827743
7.8913,-0.131276020216096
7.8914,-0.107443283409114
7.8915,-0.13610698043082
7.8916,-0.124512675944704
7.8917,-0.136429044445758
7.8918,-0.146735092965149
7.8919,-0.143836516810923
7.892,-0.123868547920624
7.8921,-0.133530468314126
7.8922,-0.170889894502679
7.8923,-0.171534022549933
7.8924,-0.149633669125794
7.8925,-0.148345413053602
7.8926,-0.149311605107627
7.8927,-0.13385253232844
7.8928,-0.133208404299889
7.8929,-0.117427267696603
7.893,-0.110663923493972
7.8931,-0.102934387302824
7.8932,-0.094882787149014
7.8933,-0.0919842111048446
7.8934,-0.074270690961757
7.8935,-0.047539379147677
7.8936,-0.0755589469648916
7.8937,-0.0649308349726248
7.8938,-0.0249948996658423
7.8939,-0.0291817315452794
7.894,-0.0604219389988209
7.8941,-0.0456069951793553
7.8942,-0.0771692669704006
7.8943,-0.0919842111048446
7.8944,-0.074270690961757
7.8945,-0.10615502737726
7.8946,-0.100679939255122
7.8947,-0.0971372351874551
7.8948,-0.104222643331708
7.8949,-0.13385253232844
7.895,-0.159617653728653
7.8951,-0.139327620583708
7.8952,-0.118071395717637
7.8953,-0.132242212257643
7.8954,-0.107765347417264
7.8955,-0.125800931993783
7.8956,-0.107443283409114
7.8957,-0.0923062751094611
7.8958,-0.0649308349726248
7.8959,-0.111308051511841
7.896,-0.0961710431705414
7.8961,-0.137395236491038
7.8962,-0.140937940663088
7.8963,-0.166380998181085
7.8964,-0.1402938126311
7.8965,-0.0839326110129445
7.8966,-0.0600998750012098
7.8967,-0.0646087709740461
7.8968,-0.0646087709740461
7.8969,-0.0356230113813128
7.897,-0.0214521957763879
7.8971,-0.0510820830958999
7.8972,-0.0559130430385142
7.8973,-0.0729824349597508
7.8974,-0.0794237149810911
7.8975,-0.102612323295788
7.8976,-0.0781354589745562
7.8977,-0.106799155393038
7.8978,-0.0745927549624348
7.8979,-0.0681514749622359
7.898,-0.100357875248603
7.8981,-0.0942386591386885
7.8982,-0.110019795476403
7.8983,-0.0942386591386885
7.8984,-0.0610660669942498
7.8985,-0.103256451309934
7.8986,-0.0510820830958999
7.8987,-0.0198418758292061
7.8988,-0.00824757225642003
7.8989,0.0271794659433011
7.899,0.0361972573703171
7.8991,0.0291118498243393
7.8992,0.0539107761149562
7.8993,0.0535887121392885
7.8994,0.0600299916422169
7.8995,0.0742008064725372
7.8996,0.0825744697332223
7.8997,0.0555210959924691
7.8998,0.0455371127295704
7.8999,0.0774214461923617
7.9,0.0481624613315648
7.9001,0.0558919967403502
7.9002,0.068452491712971
7.9003,0.0748937711547301
7.9004,0.0842336263082998
7.9005,0.0858439461579986
7.9006,0.0839115623382071
7.9007,0.0674862997948882
7.9008,0.101947144585869
7.9009,0.0996926968134392
7.901,0.109354615821336
7.9011,0.124813686144512
7.9012,0.118050342891462
7.9013,0.144781651821823
7.9014,0.150578803115579
7.9015,0.155409762516375
7.9016,0.159274530030123
7.9017,0.170546768577577
7.9018,0.193735373434704
7.9019,0.156698018354967
7.902,0.213381274617797
7.9021,0.200820780434556
7.9022,0.206617931602909
7.9023,0.192769181569677
7.9024,0.175377727939713
7.9025,0.181819007075224
7.9026,0.183429326856633
7.9027,0.174733600025286
7.9028,0.174411536068012
7.9029,0.187294094328034
7.903,0.22336525713507
7.9031,0.2088723792763
7.9032,0.176343919811054
7.9033,0.136407988816865
7.9034,0.198888396709118
7.9035,0.179242495422923
7.9036,0.207262059509773
7.9037,0.205329675788745
7.9038,0.224975576892802
7.9039,0.219500489713003
7.904,0.21885636180884
7.9041,0.255893716081594
7.9042,0.246553861566075
7.9043,0.191158861793871
7.9044,0.184395518725008
7.9045,0.179886623336235
7.9046,0.174089472110698
7.9047,0.171835024408369
7.9048,0.142849268054098
7.9049,0.122559238395775
7.905,0.110642871685767
7.9051,0.0964720571343555
7.9052,0.106778104090166
7.9053,0.0471962694032346
7.9054,0.0584685085362825
7.9055,-0.00852079934212054
7.9056,-0.0310652785429099
7.9057,-0.0751880459114283
7.9058,-0.10513999822768
7.9059,-0.122853518713172
7.906,-0.162789456660558
7.9061,-0.196606179277512
7.9062,-0.181469169993172
7.9063,-0.186944258436343
7.9064,-0.193707603017193
7.9065,-0.199504755544702
7.9066,-0.210454932616584
7.9067,-0.17116312122389
7.9068,-0.158280560379881
7.9069,-0.167620416978851
7.907,-0.175349953526241
7.9071,-0.139278783368519
7.9072,-0.130583054996648
7.9073,-0.142499423520625
7.9074,-0.176316145597986
7.9075,-0.117700494548527
7.9076,-0.0983766541015716
7.9077,-0.0816293259271139
7.9078,-0.0606951659783599
7.9079,-0.047812606154374
7.908,-0.0577965900084989
7.9081,-0.0304211505613938
7.9082,-0.0168944630089834
7.9083,0.00114112022128583
7.9084,0.0175663833535635
7.9085,-0.000469199702105461
7.9086,-0.0165723990210106
7.9087,-0.00948699130152281
7.9088,-0.00240158361219607
7.9089,0.0120912956601269
7.909,-0.00787667136949675
7.9091,0.026584174811516
7.9092,0.0252959188917541
7.9093,0.0494507172352298
7.9094,0.0687745556855593
7.9095,0.0926072895129084
7.9096,0.109032551855108
7.9097,0.129322581635214
7.9098,0.151544994996509
7.9099,0.228518280356819
7.91,0.261690867147277
7.9101,0.278438192394892
7.9102,0.250418628954968
7.9103,0.250418628954968
7.9104,0.300982668572555
7.9105,0.26555563451904
7.9106,0.227874152454575
7.9107,0.233671303569945
7.9108,0.204041419973996
7.9109,0.192769181569677
7.911,0.158308338152256
7.9111,0.132543221265949
7.9112,0.119338598750772
7.9113,0.0864880740975219
7.9114,0.0391446699809599
7.9115,0.0182105113163713
7.9116,0.0256179828717817
7.9117,-0.0207592308695978
7.9118,-0.0606951659783599
7.9119,-0.0719674059141378
7.912,-0.0755101099115429
7.9121,-0.143465615567782
7.9122,-0.111581278378046
7.9123,-0.14700831974674
7.9124,-0.169230737089009
7.9125,-0.176316145597986
7.9126,-0.142177359505062
7.9127,-0.101275230151655
7.9128,-0.0687467659238306
7.9129,-0.0265563826777318
7.913,0.00629414396590749
7.9131,0.0993706328457528
7.9132,0.144459587860645
7.9133,0.157664210233467
7.9134,0.17763217563895
7.9135,0.216923978095514
7.9136,0.279404384233764
7.9137,0.253961332390857
7.9138,0.274895488983552
7.9139,0.24913037315917
7.914,0.28294708764085
7.9141,0.313221098445489
7.9142,0.312576970558304
7.9143,0.269742465833701
7.9144,0.254927524236363
7.9145,0.26491150662404
7.9146,0.223687321086685
7.9147,0.176988047725082
7.9148,0.168614384830169
7.9149,0.0977603130065817
7.915,0.0671642358220879
7.9151,0.0243297269513224
7.9152,-0.0143179511069678
7.9153,-0.0668143819329821
7.9154,-0.0974104620861928
7.9155,-0.143465615567782
7.9156,-0.200793011665666
7.9157,-0.184367746224792
7.9158,-0.222693365932961
7.9159,-0.264239627361876
7.916,-0.257798346420953
7.9161,-0.254577705964339
7.9162,-0.277444253407355
7.9163,-0.302565249739778
7.9164,-0.329618631069871
7.9165,-0.353451372354104
7.9166,-0.361825038344722
7.9167,-0.300632865385674
7.9168,-0.311260979376838
7.9169,-0.334449592095875
7.917,-0.328330374800107
7.9171,-0.300954929444447
7.9172,-0.267782331895213
7.9173,-0.266816139748639
7.9174,-0.264561691409895
7.9175,-0.267782331895213
7.9176,-0.216252085224433
7.9177,-0.223659558042268
7.9178,-0.194029667045779
7.9179,-0.167620416978851
7.918,-0.163433584701944
7.9181,-0.154415792151818
7.9182,-0.128972734933956
7.9183,-0.130583054996648
7.9184,-0.175027889502491
7.9185,-0.189198706625843
7.9186,-0.190809026763717
7.9187,-0.20562397213146
7.9188,-0.180825041942615
7.9189,-0.172451377315445
7.919,-0.145075935647947
7.9191,-0.10417380620768
7.9192,-0.140889103443595
7.9193,-0.144753871631757
7.9194,-0.121243198659639
7.9195,-0.0967663340763048
7.9196,-0.0536097580617679
7.9197,0.00242937615889995
7.9198,0.0281944947099142
7.9199,0.0591126364847234
7.92,0.0404329258908797
7.9201,0.0352799022457698
7.9202,0.00822652786614451
7.9203,0.0104809757470165
7.9204,0.0388226060033389
7.9205,0.0742496432114983
7.9206,0.0829453704276222
7.9207,0.0568581886642322
7.9208,0.0291606866482594
7.9209,0.0333475183751047
7.921,-0.00819873535577757
7.9211,-0.012063503196007
7.9212,0.0233635350103665
7.9213,0.0504169091623986
7.9214,0.0642656600644912
7.9215,0.0958279291979452
7.9216,0.114507639274476
7.9217,0.139950692399539
7.9218,0.158630402111587
7.9219,0.194379501344533
7.922,0.228840344307891
7.9221,0.214025402523154
7.9222,0.209516507182659
7.9223,0.225297640844246
7.9224,0.213703338570493
7.9225,0.19470156529939
7.9226,0.201786972296775
7.9227,0.229484472209933
7.9228,0.219178425760939
7.9229,0.272318977409536
7.923,0.280370576072389
7.9231,0.279404384233764
7.9232,0.28294708764085
7.9233,0.313221098445489
7.9234,0.290998686281186
7.9235,0.27360723319677
7.9236,0.281014703964668
7.9237,0.301948860405911
7.9238,0.269742465833701
7.9239,0.279404384233764
7.924,0.27972644818
7.9241,0.321916824913409
7.9242,0.337375894149791
7.9243,0.329002231652913
7.9244,0.300016476738973
7.9245,0.326747784055134
7.9246,0.312576970558304
7.9247,0.305491563792981
7.9248,0.307423947457406
7.9249,0.290032494445221
7.925,0.324171272513501
7.9251,0.309034267177094
7.9252,0.31161077872735
7.9253,0.267165954256028
7.9254,0.204685547881444
7.9255,0.175699791896867
7.9256,0.111286999617696
7.9257,0.0868101380672074
7.9258,0.0632994681443316
7.9259,0.0368902221364248
7.926,0.0227194070494374
7.9261,0.0413991178227282
7.9262,0.059756764432948
7.9263,0.0352799022457698
7.9264,0.0359240302022023
7.9265,0.0285165586894203
7.9266,0.0310930705233939
7.9267,0.00242937615889995
7.9268,-0.035252110429108
7.9269,-0.0400830703115407
7.927,-0.0313873425337654
7.9271,-0.071323277915519
7.9272,-0.0748659819113839
7.9273,-0.0748659819113839
7.9274,-0.0925795020191183
7.9275,-0.131549247035185
7.9276,-0.126396222837636
7.9277,-0.128006542897262
7.9278,-0.129616862958803
7.9279,-0.153449600096599
7.928,-0.149584831882881
7.9281,-0.187910450517055
7.9282,-0.167298352957063
7.9283,-0.142177359505062
7.9284,-0.144431807615645
7.9285,-0.145397999664215
7.9286,-0.163755648722759
7.9287,-0.0986987181068439
7.9288,-0.0487787981374277
7.9289,-0.0217254228361814
7.929,0.0108030397297583
7.9291,0.0198208312223594
7.9292,0.0578243805876251
7.9293,0.0790806027806646
7.9294,0.0897087137920984
7.9295,0.0884204579148746
7.9296,0.0687745556855593
7.9297,0.0562140607150319
7.9298,0.0652318519841697
7.9299,0.0166001914089086
7.93,-0.000469199702105461
7.9301,-0.0358962384125791
7.9302,-0.0433037102414041
7.9303,-0.0900029899900061
7.9304,-0.13348163111434
7.9305,-0.185333938303497
7.9306,-0.243305464438228
7.9307,-0.249102617209142
7.9308,-0.285495854732431
7.9309,-0.242339272312597
7.931,-0.220116853645345
7.9311,-0.19757237136581
7.9312,-0.163433584701944
7.9313,-0.11834462256805
7.9314,-0.0320314705156712
7.9315,0.00597207998232342
7.9316,0.0394667339585245
7.9317,0.0781144108677655
7.9318,0.0742496432114983
7.9319,0.0291606866482594
7.932,-0.020437166880864
7.9321,-0.0642378699490585
7.9322,-0.113191598420288
7.9323,-0.19209728287553
7.9324,-0.271647100489925
7.9325,-0.378250306455608
7.9326,-0.424627535577415
7.9327,-0.469072382335236
7.9328,-0.51577168025639
7.9329,-0.590168498206045
7.933,-0.61367918237863
7.9331,-0.651038627207292
7.9332,-0.664243259014982
7.9333,-0.66649770837163
7.9334,-0.685499496082751
7.9335,-0.65844610355817
7.9336,-0.631714776203319
7.9337,-0.613035054035618
7.9338,-0.599186294790894
7.9339,-0.558928275118692
7.934,-0.557962082671517
7.9341,-0.565691622281339
7.9342,-0.539926490535054
7.9343,-0.500956730296104
7.9344,-0.416575933135591
7.9345,-0.337670232792546
7.9346,-0.231389094945346
7.9347,-0.120277006628429
7.9348,-0.0210812948583953
7.9349,0.057502316613215
7.935,0.155087698556621
7.9351,0.193091245524724
7.9352,0.281658831856838
7.9353,0.296151709402379
7.9354,0.352190835456751
7.9355,0.348648132104501
7.9356,0.358310050332579
7.9357,0.348326068163273
7.9358,0.347359876339473
7.9359,0.358310050332579
7.936,0.376023567042566
7.9361,0.353801155161564
7.9362,0.340596533567924
7.9363,0.338020022033581
7.9364,0.302592988294692
7.9365,0.268454210045096
7.9366,0.265877698466495
7.9367,0.290998686281186
7.9368,0.30935633112096
7.9369,0.271030721621847
7.937,0.245909733667486
7.9371,0.280370576072389
7.9372,0.290354558390569
7.9373,0.291642814171698
7.9374,0.317729993653167
7.9375,0.340596533567924
7.9376,0.349936387869222
7.9377,0.388906124619172
7.9378,0.438503971096114
7.9379,0.482948794388547
7.938,0.506137397815748
7.9381,0.529970129114503
7.9382,0.585687190206139
7.9383,0.624978990668676
7.9384,0.659439832227178
7.9385,0.661694279812499
7.9386,0.67683128505226
7.9387,0.706783231726166
7.9388,0.673610645635936
7.9389,0.692290354279478
7.939,0.667813494691531
7.9391,0.607587537983387
7.9392,0.571516376962138
7.9393,0.534479024226189
7.9394,0.486169433754062
7.9395,0.432384756284708
7.9396,0.388584060680048
7.9397,0.383431037652072
7.9398,0.393092955826491
7.9399,0.40597551337312
7.94,0.371192607944896
7.9401,0.361208625797783
7.9402,0.342528917217831
7.9403,0.289388366554446
7.9404,0.255571652133214
7.9405,0.210482699041926
7.9406,0.151544994996509
7.9407,0.106456040123552
7.9408,0.0694186836305772
7.9409,0.0240076629710621
7.941,-0.0278446386379192
7.9411,-0.0871044139627622
7.9412,-0.10256348617582
7.9413,-0.173095505361714
7.9414,-0.248136425078612
7.9415,-0.259408666652714
7.9416,-0.268748524042628
7.9417,-0.247814361035284
7.9418,-0.210454932616584
7.9419,-0.176960273646227
7.942,-0.0883926699741524
7.9421,0.00436176006349543
7.9422,0.115795895135859
7.9423,0.203719356020218
7.9424,0.319984441255313
7.9425,0.432062692347176
7.9426,0.536411407845664
7.9427,0.644946954913636
7.9428,0.773772532607043
7.9429,0.905174627130401
7.943,1.00791303486536
7.9431,1.09390412059451
7.9432,1.18472617166188
7.9433,1.31419591543064
7.9434,1.42788453410773
7.9435,1.47812653418674
7.9436,1.52096106213097
7.9437,1.53706426867732
7.9438,1.55220128311283
7.9439,1.49036497052772
7.944,1.40147527874442
7.9441,1.30034716104025
7.9442,1.20791478144708
7.9443,1.09744682460356
7.9444,0.977639020721977
7.9445,0.851712009431535
7.9446,0.762500294390956
7.9447,0.674254773519041
7.9448,0.57441495239711
7.9449,0.522240594638444
7.945,0.478761963212911
7.9451,0.475863387783275
7.9452,0.43399507597223
7.9453,0.373769119464107
7.9454,0.385685485227276
7.9455,0.36603958490328
7.9456,0.312254906614676
7.9457,0.285523599207574
7.9458,0.273285169250004
7.9459,0.212093018806656
7.946,0.195989821118444
7.9461,0.143171332015496
7.9462,0.145425779744048
7.9463,0.136407988816865
7.9464,0.138340372589901
7.9465,0.101947144585869
7.9466,0.106778104090166
7.9467,0.0819791785165766
7.9468,0.0517051650645189
7.9469,0.0214311511268778
7.947,0.00468382404738217
7.9471,-0.0181827189615069
7.9472,-0.044591966215206
7.9473,-0.0545759500484576
7.9474,-0.0777645579143146
7.9475,-0.122531454702314
7.9476,-0.12092113464916
7.9477,-0.183079490121018
7.9478,-0.252645321694779
7.9479,-0.304175570037548
7.948,-0.361502974266855
7.9481,-0.406914010297159
7.9482,-0.466817933533589
7.9483,-0.453291240843975
7.9484,-0.439764548358463
7.9485,-0.41077877942058
7.9486,-0.417220061328369
7.9487,-0.400472728459998
7.9488,-0.419152445909378
7.9489,-0.446205830469148
7.949,-0.427204048373588
7.9491,-0.389200485350029
7.9492,-0.368266319924093
7.9493,-0.318668452828045
7.9494,-0.292259199891606
7.9495,-0.268104395944258
7.9496,-0.251679129561236
7.9497,-0.236864183616014
7.9498,-0.212387316816076
7.9499,-0.183723618172738
7.95,-0.160212944498239
7.9501,-0.156348176264409
7.9502,-0.139278783368519
7.9503,-0.122531454702314
7.9504,-0.171485185246656
7.9505,-0.175349953526241
7.9506,-0.176638209622065
7.9507,-0.224625750152367
7.9508,-0.225914006300401
7.9509,-0.208200484387779
7.951,-0.216896213293711
7.9511,-0.221405109788451
7.9512,-0.238474503818193
7.9513,-0.229456710714791
7.9514,-0.179214721817672
7.9515,-0.173417569384972
7.9516,-0.204013651974054
7.9517,-0.180825041942615
7.9518,-0.143787679583658
7.9519,-0.0761542379119829
7.952,-0.0433037102414041
7.9521,-0.0606951659783599
7.9522,-0.0284887666183999
7.9523,-0.000147135717304889
7.9524,-0.0568303980197729
7.9525,-0.0542538860528266
7.9526,-0.0300990865707329
7.9527,0.0185325752976868
7.9528,-0.00111332767189033
7.9529,-0.0185047829497961
7.953,-0.0735777259119078
7.9531,-0.158280560379881
7.9532,-0.19596205121907
7.9533,-0.334127528026766
7.9534,-0.398862408007555
7.9535,-0.513839295464255
7.9536,-0.585659599952532
7.9537,-0.66295500224286
7.9538,-0.738962155740906
7.9539,-0.819156153037154
7.954,-0.891298552623109
7.9541,-0.967949861451044
7.9542,-1.01980222309581
7.9543,-1.05619549839117
7.9544,-1.07745174878701
7.9545,-1.07390904033029
7.9546,-1.07358697592627
7.9547,-1.03558337757834
7.9548,-0.990816430294979
7.9549,-0.923504983711723
7.955,-0.838802073540652
7.9551,-0.755065367283591
7.9552,-0.653293076523639
7.9553,-0.567301943042736
7.9554,-0.444273445831133
7.9555,-0.319634645021204
7.9556,-0.211743188749232
7.9557,-0.094833950048387
7.9558,-0.0069104794110269
7.9559,0.143493395976849
7.956,0.174089472110698
7.9561,0.201142844388666
7.9562,0.284557407370254
7.9563,0.414027111829582
7.9564,0.524817106130332
7.9565,0.61563913644411
7.9566,0.734158667037853
7.9567,0.772806340758442
7.9568,0.82530276497492
7.9569,0.786333026665368
7.957,0.710003871165197
7.9571,0.626589310363731
7.9572,0.509680101116635
7.9573,0.413060920015193
7.9574,0.288744238663566
7.9575,0.141238948246452
7.9576,0.0149898714999665
7.9577,-0.134447823154959
7.9578,-0.240084824022618
7.9579,-0.344111514216464
7.958,-0.466173805305604
7.9581,-0.571166712883299
7.9582,-0.64652972859509
7.9583,-0.732520871229151
7.9584,-0.80723977531696
7.9585,-0.843310973413113
7.9586,-0.844921294803853
7.9587,-0.818512024506166
7.9588,-0.829462209620062
7.9589,-0.832360788063646
7.959,-0.830750466704488
7.9591,-0.838802073540652
7.9592,-0.84814193759755
7.9593,-0.84910813043884
7.9594,-0.833326980881076
7.9595,-0.811748674969282
7.9596,-0.812714867755969
7.9597,-0.811426610707371
7.9598,-0.831394595247668
7.9599,-0.872940887658559
7.96,-0.925115305311052
7.9601,-1.01980222309581
7.9602,-1.10128451537115
7.9603,-1.18534333581385
7.9604,-1.26457120225936
7.9605,-1.33091649870118
7.9606,-1.35635960029462
7.9607,-1.40338103225488
7.9608,-1.39082051228375
7.9609,-1.37053044229428
7.961,-1.34476527534537
7.9611,-1.34090050042659
7.9612,-1.34412114619002
7.9613,-1.2352633314909
7.9614,-1.21722771957559
7.9615,-1.18663159370465
7.9616,-1.14798385838882
7.9617,-1.11416709234364
7.9618,-1.08228271490156
7.9619,-1.06843394548792
7.962,-1.04492324472678
7.9621,-1.01658157937825
7.9622,-1.01786983686307
7.9623,-0.956033480859954
7.9624,-0.883569009413871
7.9625,-0.791458626777444
7.9626,-0.727367843662758
7.9627,-0.641376701643058
7.9628,-0.543469196101858
7.9629,-0.439120420149909
7.963,-0.327364182598841
7.9631,-0.198538563454873
7.9632,-0.065204061942512
7.9633,0.034313710310694
7.9634,0.122559238395775
7.9635,0.201464908342739
7.9636,0.291642814171698
7.9637,0.322238888856347
7.9638,0.353479091220639
7.9639,0.41048440850965
7.964,0.456539551576201
7.9641,0.550582221059373
7.9642,0.637539484299768
7.9643,0.657185384642747
7.9644,0.685849075428861
7.9645,0.710325935109233
7.9646,0.69196829033674
7.9647,0.672322389869965
7.9648,0.599213875592127
7.9649,0.489068009182795
7.965,0.406941705188291
7.9651,0.295829645457498
7.9652,0.194057437389637
7.9653,0.0864880740975219
7.9654,0.0291606866482594
7.9655,-0.0181827189615069
7.9656,-0.0529656300709796
7.9657,-0.0764763019123084
7.9658,-0.0503891181105252
7.9659,-0.0107752472482651
7.966,0.0291606866482594
7.9661,0.0823012424869764
7.9662,0.110320807719731
7.9663,0.1312549654142
7.9664,0.189548542017111
7.9665,0.234315431470988
7.9666,0.272318977409536
7.9667,0.274251361090218
7.9668,0.27747200055577
7.9669,0.25911435556373
7.967,0.19470156529939
7.9671,0.144781651821823
7.9672,0.125135750108432
7.9673,0.109676679787516
7.9674,0.0774702829255739
7.9675,-0.012063503196007
7.9676,-0.055864206031659
7.9677,-0.116412238510385
7.9678,-0.167620416978851
7.9679,-0.222693365932961
7.968,-0.315447812190645
7.9681,-0.383725395887309
7.9682,-0.47358127995583
7.9683,-0.540248554676859
7.9684,-0.599186294790894
7.9685,-0.628172070239735
7.9686,-0.645563536038879
7.9687,-0.620764594187463
7.9688,-0.578252124306289
7.9689,-0.487430037078616
7.969,-0.4049816257414
7.9691,-0.322533221606064
7.9692,-0.186300130382954
7.9693,-0.026878446667682
7.9694,0.145747843705094
7.9695,0.326747784055134
7.9696,0.476185451719917
7.9697,0.594382916523643
7.9698,0.693578610050653
7.9699,0.758635527011282
7.97,0.829167532439863
7.9701,0.864272503842359
7.9702,0.900021603683305
7.9703,0.8910038126798
7.9704,0.862340120082668
7.9705,0.836575003429916
7.9706,0.810165759122769
7.9707,0.762822358339459
7.9708,0.688425586968067
7.9709,0.666847302868073
7.971,0.61950390370808
7.9711,0.593738788648024
7.9712,0.600180067406114
7.9713,0.658795704345822
7.9714,0.710325935109233
7.9715,0.740922009908851
7.9716,0.729005643906097
7.9717,0.721276109221144
7.9718,0.648489658253743
7.9719,0.50066231089611
7.972,0.319662377312217
7.9721,0.07875853880975
7.9722,-0.189520770653249
7.9723,-0.40949052304434
7.9724,-0.649750370458164
7.9725,-0.911910668323393
7.9726,-1.08904606753431
7.9727,-1.24460320220516
7.9728,-1.37085250689025
7.9729,-1.44750388724923
7.973,-1.45136866307809
7.9731,-1.46940428406274
7.9732,-1.43429923675587
7.9733,-1.41175471242984
7.9734,-1.32447520737835
7.9735,-1.23075442845067
7.9736,-1.14540734280387
7.9737,-1.00080042542667
7.9738,-0.833004916608438
7.9739,-0.739606284195378
7.974,-0.601118679786924
7.9741,-0.501922922676945
7.9742,-0.367944255844125
7.9743,-0.233965607257738
7.9744,-0.132193375061261
7.9745,-0.035252110429108
7.9746,0.0459080134980173
7.9747,0.111931127549433
7.9748,0.136730052779149
7.9749,0.15734214627401
7.975,0.134475605042217
7.9751,0.0562140607150319
7.9752,-0.00852079934212054
7.9753,-0.0687467659238306
7.9754,-0.127040350861257
7.9755,-0.227524326487432
7.9756,-0.244915784649421
7.9757,-0.275189805046949
7.9758,-0.317380196571893
7.9759,-0.376317921957673
7.976,-0.428492304774375
7.9761,-0.456833946052363
7.9762,-0.537027913264477
7.9763,-0.649750370458164
7.9764,-0.762794908958763
7.9765,-0.862312766084222
7.9766,-1.00917409889742
7.9767,-1.17149456369316
7.9768,-1.34057843585147
7.9769,-1.46908221939578
7.977,-1.60048462370746
7.9771,-1.75217715784181
7.9772,-1.89839464695186
7.9773,-1.95540015977676
7.9774,-2.00886296554948
7.9775,-1.98148743144175
7.9776,-1.97214754383074
7.9777,-1.89549606179815
7.9778,-1.83913468843074
7.9779,-1.79662211539567
7.978,-1.79436766090071
7.9781,-1.79114701164575
7.9782,-1.72480164309182
7.9783,-1.71771621606193
7.9784,-1.7080542703209
7.9785,-1.68261114768148
7.9786,-1.66972855456852
7.9787,-1.6690844249239
7.9788,-1.64170891599211
7.9789,-1.69420548184364
7.979,-1.72190305929117
7.9791,-1.73736217314645
7.9792,-1.71513969717413
7.9793,-1.72898848639785
7.9794,-1.7409048868258
7.9795,-1.76087290999598
7.9796,-1.76989072725497
7.9797,-1.80274134909337
7.9798,-1.8681205364978
7.9799,-1.90451388235342
7.98,-1.92158332902825
7.9801,-1.87842661636715
7.9802,-1.86554401657626
7.9803,-1.87391770638821
7.9804,-1.80789438807453
7.9805,-1.77439963596499
7.9806,-1.70547775149719
7.9807,-1.63945446239899
7.9808,-1.56988847196932
7.9809,-1.53027451043453
7.981,-1.55507349404584
7.9811,-1.55765001190774
7.9812,-1.54347916386362
7.9813,-1.49903423444628
7.9814,-1.49806804037996
7.9815,-1.48421925900089
7.9816,-1.50644172236037
7.9817,-1.51610366331065
7.9818,-1.58599170944285
7.9819,-1.61465547370736
7.982,-1.65362531376662
7.9821,-1.63881033280328
7.9822,-1.53220689871541
7.9823,-1.40788993694511
7.9824,-1.21336294567867
7.9825,-0.952490773163257
7.9826,-0.646207664409548
7.9827,-0.313837491875664
7.9828,0.0990485688780172
7.9829,0.498729927277358
7.983,0.927719104857162
7.9831,1.37571015225692
7.9832,1.80469961045998
7.9833,2.1892444473289
7.9834,2.51613998916731
7.9835,2.7815213786267
7.9836,3.05592077776896
7.9837,3.30809788594029
7.9838,3.44884049849503
7.9839,3.58926111288654
7.984,3.67460853887764
7.9841,3.71679916306934
7.9842,3.71164610937963
7.9843,3.64562261765335
7.9844,3.57895501039127
7.9845,3.47686020277522
7.9846,3.29714766253006
7.9847,3.0417499115389
7.9848,2.77443595086419
7.9849,2.50905456606438
7.985,2.28006663435562
7.9851,1.98505561615239
7.9852,1.79858038973435
7.9853,1.66975470283935
7.9854,1.64012479810491
7.9855,1.61210521534039
7.9856,1.60663012457352
7.9857,1.64366750404454
7.9858,1.65043085179337
7.9859,1.61661411364779
7.986,1.52997885775911
7.9861,1.51387565134732
7.9862,1.48360162410781
7.9863,1.44141122616582
7.9864,1.38505001053046
7.9865,1.34930089829992
7.9866,1.2971265205097
7.9867,1.26781869211281
7.9868,1.21628844619816
7.9869,1.20501620520038
7.987,1.30904289052042
7.9871,1.50968881772998
7.9872,1.71870846109226
7.9873,1.97474955724834
7.9874,2.22499360408524
7.9875,2.48006874548814
7.9876,2.75672238203417
7.9877,2.97862515090787
7.9878,3.13708120497922
7.9879,3.28619743950761
7.988,3.3799184786159
7.9881,3.48458977684429
7.9882,3.52452591283136
7.9883,3.54578224554618
7.9884,3.55641041249971
7.9885,3.57283576221374
7.9886,3.59183763856961
7.9887,3.57347989359458
7.9888,3.62984139516262
7.9889,3.65206393321581
7.989,3.6153484365266
7.9891,3.60826299035799
7.9892,3.56800477690444
7.9893,3.483945645664
7.9894,3.37540956198294
7.9895,3.24143035526995
7.9896,3.05881936411627
7.9897,2.87008923695759
7.9898,2.63015090454493
7.9899,2.50422359583374
7.99,2.42048678697193
7.9901,2.3889244553953
7.9902,2.42338536855344
7.9903,2.5103428248017
7.9904,2.62113309088689
7.9905,2.7496369547316
7.9906,2.89843095612224
7.9907,3.04078371613564
7.9908,3.18217033984393
7.9909,3.32774387597663
7.991,3.4665541043363
7.9911,3.51454187831449
7.9912,3.52839070047981
7.9913,3.50262545047497
7.9914,3.44400951526974
7.9915,3.47363954697384
7.9916,3.53773060417968
7.9917,3.5267803722866
7.9918,3.60085547864739
7.9919,3.68169398675616
7.992,3.73032592947529
7.9921,3.76768557358543
7.9922,3.72968179772619
7.9923,3.66301417001931
7.9924,3.58700665293332
7.9925,3.46880856333864
7.9926,3.33450724988725
7.9927,3.18474686202559
7.9928,3.0182391575024
7.9929,2.83788274057576
7.993,2.72322763593185
7.9931,2.58473977349703
7.9932,2.47620396955706
7.9933,2.38505968025023
7.9934,2.28940650559895
7.9935,2.24818224766253
7.9936,2.21533166957811
7.9937,2.24045269968361
7.9938,2.27298121491131
7.9939,2.31613786222539
7.994,2.35929451344388
7.9941,2.45816834899498
7.9942,2.5029353371147
7.9943,2.58924867990209
7.9944,2.66428977235579
7.9945,2.6726634573564
7.9946,2.76090922550174
7.9947,2.81952503889438
7.9948,2.87395401671355
7.9949,2.93740082361418
7.995,3.05785316866441
7.9951,3.25302470740846
7.9952,3.4929634823185
7.9953,3.81631753202048
7.9954,4.09200616055555
7.9955,4.38218810772173
7.9956,4.65272433646698
7.9957,4.85562673760987
7.9958,5.04629077019528
7.9959,5.11682362759434
7.996,5.16448968324114
7.9961,5.1925096000482
7.9962,5.19122132791776
7.9963,5.15450557597928
7.9964,5.11424708439291
7.9965,5.0588514141058
7.9966,4.93936429644415
7.9967,4.80699455624958
7.9968,4.59475225862049
7.9969,4.35738897021902
7.997,4.10456674793305
7.9971,3.83982834960829
7.9972,3.56768271122009
7.9973,3.33257485732607
7.9974,3.06171795048843
7.9975,2.83240763647058
7.9976,2.61952276704037
7.9977,2.38763619701
7.9978,2.21855231439324
7.9979,2.05784216241352
7.998,1.92160894386297
7.9981,1.73223515803891
7.9982,1.56025288664872
7.9983,1.40018702240388
7.9984,1.29036317542637
7.9985,1.18569236372774
7.9986,1.10388810464202
7.9987,1.05783295297835
7.9988,1.08166568862846
7.9989,1.09164967259319
7.999,1.18730268383914
7.9991,1.29068523947701
7.9992,1.39761050972796
7.9993,1.51194326659832
7.9994,1.60534186792804
7.9995,1.64785433835812
7.9996,1.72160703898768
7.9997,1.74479566257896
7.9998,1.74737217635865
7.9999,1.77152699350975
8,1.78195097559765
8.0001,1.79805418776654
8.0002,1.82478552082578
8.0003,1.87148484024761
8.0004,1.87760406166623
8.0005,1.91238700560459
8.0006,1.86375529748763
8.0007,1.83283712738176
8.0008,1.75489758001392
8.0009,1.75006661662886
8.001,1.70433349823081
8.0011,1.65956657528621
8.0012,1.61061282088153
8.0013,1.54523379837285
8.0014,1.51302738525438
8.0015,1.4569882292874
8.0016,1.46375157550977
8.0017,1.44764837030111
8.0018,1.4318672294708
8.0019,1.43863057550799
8.002,1.42961278080265
8.0021,1.40771242259269
8.0022,1.38549000080289
8.0023,1.33685832586814
8.0024,1.30465191988614
8.0025,1.24345975112846
8.0026,1.19869285075949
8.0027,1.17002915281161
8.0028,1.09595443063244
8.0029,1.05762881500337
8.003,1.05215372713431
8.0031,1.02316796813817
8.0032,0.951991828674679
8.0033,0.895630634138095
8.0034,0.823166243231677
8.0035,0.754888685563724
8.0036,0.699815750887412
8.0037,0.636369154452888
8.0038,0.594500842431496
8.0039,0.563260640503994
8.004,0.506899451593719
8.0041,0.43862189700301
8.0042,0.392888817797609
8.0043,0.350376377724755
8.0044,0.296269635324257
8.0045,0.284353269348247
8.0046,0.25729989780343
8.0047,0.248926235140358
8.0048,0.228636206291121
8.0049,0.233145101602138
8.005,0.26696181623553
8.0051,0.268250072024482
8.0052,0.261808793075058
8.0053,0.256655769907004
8.0054,0.268894199918785
8.0055,0.275335478855536
8.0056,0.250536554884872
8.0057,0.226059694681874
8.0058,0.20319315405241
8.0059,0.159714519939805
8.006,0.105285710222373
8.0061,0.0479583233397562
8.0062,-0.0190309849176039
8.0063,-0.137550537234491
8.0064,-0.226118144231068
8.0065,-0.333687537787856
8.0066,-0.475073674273918
8.0067,-0.589084379366059
8.0068,-0.713723220018756
8.0069,-0.790374507486898
8.007,-0.859618325186234
8.0071,-0.925963571599242
8.0072,-0.994241211476661
8.0073,-1.03771990145712
8.0074,-1.09987833081987
8.0075,-1.1565616716419
8.0076,-1.18425921542275
8.0077,-1.21646566357444
8.0078,-1.26123262995943
8.0079,-1.24738385575122
8.008,-1.27604759815279
8.0081,-1.28248888881306
8.0082,-1.32306902196652
8.0083,-1.33434128179311
8.0084,-1.36525948157316
8.0085,-1.43707989121905
8.0086,-1.51437541237049
8.0087,-1.51179889477598
8.0088,-1.58522965238966
8.0089,-1.68539180348734
8.009,-1.71727622344481
8.0091,-1.82162525275756
8.0092,-1.92468605132005
8.0093,-2.05254589632805
8.0094,-2.17428654950276
8.0095,-2.29312866015137
8.0096,-2.45416140397941
8.0097,-2.60521019856886
8.0098,-2.72984967088546
8.0099,-2.88315308141302
8.01,-3.03742278321953
8.0101,-3.18106438886422
8.0102,-3.31150134929711
8.0103,-3.47414507249744
8.0104,-3.58074924218563
8.0105,-3.68059005417894
8.0106,-3.73759595879804
8.0107,-3.77624403881419
8.0108,-3.76175100794204
8.0109,-3.72535740166263
8.011,-3.64773920107323
8.0111,-3.54371153368869
8.0112,-3.38847529447554
8.0113,-3.18042025590901
8.0114,-2.99362177252674
8.0115,-2.78975393401178
8.0116,-2.56720644307781
8.0117,-2.34659152152259
8.0118,-2.11116176075228
8.0119,-1.84867870955073
8.012,-1.6032652790514
8.0121,-1.36075057731003
8.0122,-1.15173070485576
8.0123,-0.965255419991959
8.0124,-0.790052443235696
8.0125,-0.660904690673184
8.0126,-0.546893975362983
8.0127,-0.498906419253677
8.0128,-0.467666199615565
8.0129,-0.487956239046423
8.013,-0.564929567642355
8.0131,-0.731436752078362
8.0132,-0.911792741665026
8.0133,-1.14818799590781
8.0134,-1.45769202885286
8.0135,-1.68700212766529
8.0136,-1.9227536610753
8.0137,-2.12436643493922
8.0138,-2.34498119423553
8.0139,-2.54176325372483
8.014,-2.68186185693104
8.0141,-2.7562590755344
8.0142,-2.82292673077117
8.0143,-2.91117283228037
8.0144,-2.88830613881133
8.0145,-2.86801597590883
8.0146,-2.83580937143304
8.0147,-2.75046188892261
8.0148,-2.67606467193193
8.0149,-2.5082684256596
8.015,-2.28797561376565
8.0151,-2.07670078426461
8.0152,-1.7720272537559
8.0153,-1.46993048603055
8.0154,-1.13755986920841
8.0155,-0.831920797215476
8.0156,-0.500516739884164
8.0157,-0.218066543331146
8.0158,0.1085063498873
8.0159,0.396753585063655
8.016,0.690797960483522
8.0161,0.910445576555185
8.0162,1.15424801601019
8.0163,1.33718038993293
8.0164,1.49628005091301
8.0165,1.56455764684035
8.0166,1.6321911201347
8.0167,1.72558973599182
8.0168,1.75876235074627
8.0169,1.75006661662886
8.017,1.7288103781322
8.0171,1.65344735581339
8.0172,1.55038682458658
8.0173,1.3471643759911
8.0174,1.05473023907033
8.0175,0.68918764077038
8.0176,0.343290971016228
8.0177,-0.0934277679908901
8.0178,-0.533045217276072
8.0179,-0.938202015901973
8.018,-1.2947273413052
8.0181,-1.55688795494261
8.0182,-1.74819445136333
8.0183,-1.90504008432123
8.0184,-2.07315806725819
8.0185,-2.11695893472019
8.0186,-2.16881143978765
8.0187,-2.2103578629068
8.0188,-2.23580102393246
8.0189,-2.26800755983284
8.019,-2.35657555089418
8.0191,-2.41197081668103
8.0192,-2.49667406301514
8.0193,-2.61390597386115
8.0194,-2.70633886163394
8.0195,-2.83613143745782
8.0196,-2.95594002691873
8.0197,-3.03452418668101
8.0198,-3.15723147070121
8.0199,-3.26158102234472
8.02,-3.34306388428291
8.0201,-3.45095625708622
8.0202,-3.57752857162417
8.0203,-3.61810902430301
8.0204,-3.67221630681267
8.0205,-3.77914264511374
8.0206,-3.8361485775299
8.0207,-3.87898355445693
8.0208,-3.93405710994975
8.0209,-4.01457403211922
8.021,-4.0403394543658
8.0211,-4.051933895518
8.0212,-4.09927787095351
8.0213,-4.10507509325596
8.0214,-4.11666953840049
8.0215,-4.1723872987678
8.0216,-4.13728188710548
8.0217,-4.17206523074057
8.0218,-4.1723872987678
8.0219,-4.1839817481233
8.022,-4.15853837410486
8.0221,-4.10571922907844
8.0222,-4.08929376629786
8.0223,-4.05805318419038
8.0224,-4.00136925456858
8.0225,-3.92568335197177
8.0226,-3.82616448649519
8.0227,-3.8052301036929
8.0228,-3.75369932457383
8.0229,-3.68509899520951
8.023,-3.58944505294735
8.0231,-3.50152076055535
8.0232,-3.38300015942142
8.0233,-3.28251535166749
8.0234,-3.13500888702204
8.0235,-3.00457202446572
8.0236,-2.90666390664393
8.0237,-2.80682343084511
8.0238,-2.71020365205391
8.0239,-2.56946090300497
8.024,-2.37589947965192
8.0241,-2.09054958746934
8.0242,-1.83644024075504
8.0243,-1.58683997616654
8.0244,-1.31115263330035
8.0245,-1.04448325353403
8.0246,-0.782000837006291
8.0247,-0.531434896583379
8.0248,-0.247696434916709
8.0249,0.0370081481244815
8.025,0.223805247022004
8.0251,0.380972452047788
8.0252,0.550056019091565
8.0253,0.682424297981077
8.0254,0.779043481736908
8.0255,0.827675138605301
8.0256,0.860525662275919
8.0257,0.8534402551738
8.0258,0.818979411819967
8.0259,0.777433161986504
8.026,0.715274820193778
8.0261,0.656659182674939
8.0262,0.566803343811557
8.0263,0.517205497560075
8.0264,0.455369221734483
8.0265,0.412856781985526
8.0266,0.371310533856989
8.0267,0.417365677118314
8.0268,0.469540034955212
8.0269,0.524290904162524
8.027,0.57421081436656
8.0271,0.64248836930661
8.0272,0.743938511354558
8.0273,0.823810371141737
8.0274,0.857949150600068
8.0275,0.942007845529216
8.0276,0.996114593528544
8.0277,1.04539038332216
8.0278,1.0801732946676
8.0279,1.12719463906803
8.028,1.17324979299851
8.0281,1.17872488133463
8.0282,1.17099534486685
8.0283,1.19096331417055
8.0284,1.21801669244237
8.0285,1.23669640636135
8.0286,1.23444195811425
8.0287,1.23959498268535
8.0288,1.21962701259638
8.0289,1.17002915281161
8.029,1.13266972721554
8.0291,1.09563236663147
8.0292,1.01221779264956
8.0293,0.938465141844558
8.0294,0.854084383091337
8.0295,0.825742754872831
8.0296,0.748447406613096
8.0297,0.66052394996308
8.0298,0.534596950131526
8.0299,0.433468874004422
8.03,0.32074649505966
8.0301,0.207379985448685
8.0302,0.161324839734783
8.0303,0.0595526264391715
8.0304,-0.0180647929529264
8.0305,-0.0963263440298266
8.0306,-0.140127049351186
8.0307,-0.145602137615755
8.0308,-0.195522061099852
8.0309,-0.251239139396324
8.031,-0.364927752939235
8.0311,-0.37845444434016
8.0312,-0.456716019799421
8.0313,-0.514365497432063
8.0314,-0.570404658235511
8.0315,-0.656717856193958
8.0316,-0.725639596082246
8.0317,-0.79101863598977
8.0318,-0.902130812354207
8.0319,-1.01388713764684
8.032,-1.12081251848265
8.0321,-1.20197276165178
8.0322,-1.29923624493376
8.0323,-1.39875420034619
8.0324,-1.54948046615528
8.0325,-1.69376548928485
8.0326,-1.83386372106054
8.0327,-2.04900317957677
8.0328,-2.21905362657113
8.0329,-2.34820184881824
8.033,-2.49377547242728
8.0331,-2.59490409487219
8.0332,-2.59393789767025
8.0333,-2.53789846566946
8.0334,-2.50311537553745
8.0335,-2.41197081668103
8.0336,-2.28411082903288
8.0337,-2.19811938111624
8.0338,-2.06414024232036
8.0339,-1.96623244414413
8.034,-1.8000469017341
8.0341,-1.64255718275997
8.0342,-1.49795011297142
8.0343,-1.34432528358048
8.0344,-1.20583753545695
8.0345,-1.05511137839284
8.0346,-0.865415482356538
8.0347,-0.688924275880757
8.0348,-0.580710711218604
8.0349,-0.495041649752854
8.035,-0.424509609347303
8.0351,-0.378132380257011
8.0352,-0.278292519427027
8.0353,-0.237712449624078
8.0354,-0.238034513664424
8.0355,-0.248984691089839
8.0356,-0.30953273291335
8.0357,-0.41903451968307
8.0358,-0.505991830050536
8.0359,-0.615493641034081
8.036,-0.722418953882972
8.0361,-0.787797993481651
8.0362,-0.898588104978547
8.0363,-0.958170004515123
8.0364,-0.98071450860336
8.0365,-0.985223409525884
8.0366,-0.951406653457782
8.0367,-0.831598732943805
8.0368,-0.744319321131906
8.0369,-0.686991890659331
8.037,-0.593593277636213
8.0371,-0.435459788773218
8.0372,-0.243509602364068
8.0373,-0.0274046486354899
8.0374,0.188056148182787
8.0375,0.408669950788789
8.0376,0.637657410211094
8.0377,0.889511418820914
8.0378,1.06117151892881
8.0379,1.19579427453306
8.038,1.24313768709105
8.0381,1.21769462841183
8.0382,1.12880495910917
8.0383,0.985808546168433
8.0384,0.785162696795916
8.0385,0.565193024126198
8.0386,0.332984924877503
8.0387,0.0982003029424245
8.0388,-0.188114588457875
8.0389,-0.407440212264967
8.039,-0.582643096167826
8.0391,-0.755269505016838
8.0392,-0.880874568406329
8.0393,-0.99005437483909
8.0394,-1.08248685246039
8.0395,-1.14722180256256
8.0396,-1.22580553392474
8.0397,-1.30181276131206
8.0398,-1.34303702527333
8.0399,-1.43192685696075
8.04,-1.48055862017405
8.0401,-1.58909442946475
8.0402,-1.64030272916504
8.0403,-1.65543977497459
8.0404,-1.70503775891051
8.0405,-1.69601994318397
8.0406,-1.68152702548715
8.0407,-1.67540779373106
8.0408,-1.70246124011024
8.0409,-1.66188107123789
8.041,-1.69891852678765
8.0411,-1.72403958558999
8.0412,-1.68925658152552
8.0413,-1.64287924756028
8.0414,-1.59521365990797
8.0415,-1.46252299875051
8.0416,-1.34722386478461
8.0417,-1.22644966292087
8.0418,-1.09504736455259
8.0419,-0.96976432079458
8.042,-0.848990203845625
8.0421,-0.715333541096616
8.0422,-0.642869096161669
8.0423,-0.564285439339734
8.0424,-0.455427763359312
8.0425,-0.369758714132437
8.0426,-0.271529174357678
8.0427,-0.195844125128776
8.0428,-0.180707115860197
8.0429,-0.117904632506686
8.043,-0.108242712252074
8.0431,-0.13465196110915
8.0432,-0.118870824535857
8.0433,-0.0837658479032681
8.0434,-0.0567124719954369
8.0435,-0.0489829361108173
8.0436,-0.00324984956523389
8.0437,0.0785544008128568
8.0438,0.142323066086291
8.0439,0.165189607238485
8.044,0.193531235421829
8.0441,0.227992078389011
8.0442,0.16937643869413
8.0443,0.152629112829393
8.0444,0.090792831669687
8.0445,-0.0132338331380613
8.0446,-0.0599331119588797
8.0447,-0.148178649748109
8.0448,-0.217100351226836
8.0449,-0.256070100068165
8.045,-0.359130599538568
8.0451,-0.450918865833518
8.0452,-0.484091469594656
8.0453,-0.477650187213202
8.0454,-0.519196459420719
8.0455,-0.571692914851107
8.0456,-0.624833502084319
8.0457,-0.677974093027635
8.0458,-0.73594565121984
8.0459,-0.803579141921107
8.046,-0.892468883196058
8.0461,-0.865737546645344
8.0462,-0.820004419270696
8.0463,-0.712757027373804
8.0464,-0.477972251331146
8.0465,-0.176198219517881
8.0466,0.189022340049303
8.0467,0.579363837363801
8.0468,1.03733878358293
8.0469,1.44152915239617
8.047,1.80159689449559
8.0471,2.17390328023121
8.0472,2.50917249346475
8.0473,2.8454081624392
8.0474,3.16328641792642
8.0475,3.42931242963227
8.0476,3.66313209964182
8.0477,3.85669371270885
8.0478,4.037694886691
8.0479,4.21000039922983
8.048,4.38488257316439
8.0481,4.59905706252848
8.0482,4.82965720749136
8.0483,5.00260749033501
8.0484,5.10373677785428
8.0485,5.14979249048092
8.0486,5.11822983305089
8.0487,5.02901704430457
8.0488,4.87989973204341
8.0489,4.65767327601592
8.049,4.41580098268339
8.0491,4.10275228056295
8.0492,3.88664585530579
8.0493,3.6557245864447
8.0494,3.49404760835431
8.0495,3.42480351224384
8.0496,3.41417535010018
8.0497,3.48084291898934
8.0498,3.56296965538932
8.0499,3.66892928402308
8.05,3.76039598738078
8.0501,3.90210502705179
8.0502,3.98068916472901
8.0503,4.01482818307534
8.0504,4.0080647922732
8.0505,3.98874081957469
8.0506,3.90242709313982
8.0507,3.7758551516048
8.0508,3.64992740234322
8.0509,3.49920065802623
8.051,3.3281838702726
8.0511,3.17874555044635
8.0512,2.98003133940077
8.0513,2.76424780216002
8.0514,2.5474981926151
8.0515,2.31818817663772
8.0516,2.07148679355424
8.0517,1.82414139230559
8.0518,1.55972668468091
8.0519,1.35940281064647
8.052,1.22349178097473
8.0521,1.0872587026311
8.0522,0.997724913433961
8.0523,0.904004297231042
8.0524,0.796756999046208
8.0525,0.682746361923212
8.0526,0.585483052175892
8.0527,0.524612968099018
8.0528,0.458589861103788
8.0529,0.397075649002404
8.053,0.330086349397156
8.0531,0.306253617601553
8.0532,0.300134402660245
8.0533,0.293048995874802
8.0534,0.28370914145662
8.0535,0.265995624393512
8.0536,0.256655769907004
8.0537,0.257621961751599
8.0538,0.249248299089323
8.0539,0.240230508506397
8.054,0.223805247022004
8.0541,0.223483183070458
8.0542,0.167121990988105
8.0543,0.120422716606048
8.0544,0.040228787900411
8.0545,0.00190317419109213
8.0546,-0.12788861684099
8.0547,-0.242865474280405
8.0548,-0.387150174625622
8.0549,-0.577812133803609
8.055,-0.733369137421125
8.0551,-0.912758934604545
8.0552,-1.09504736455259
8.0553,-1.23095856591717
8.0554,-1.373955225634
8.0555,-1.50986650659031
8.0556,-1.65060880284544
8.0557,-1.75431368426763
8.0558,-1.81260743426706
8.0559,-1.87154532339922
8.056,-1.93950104354707
8.0561,-1.94690853989396
8.0562,-2.01454220947565
8.0563,-1.98136950322141
8.0564,-1.95689255695661
8.0565,-1.92919496193211
8.0566,-1.90761660452164
8.0567,-1.84610218977032
8.0568,-1.78877462930774
8.0569,-1.66961062689171
8.057,-1.55946447281246
8.0571,-1.44577563666585
8.0572,-1.3456135418912
8.0573,-1.27025043663195
8.0574,-1.17330902351685
8.0575,-1.11115058561299
8.0576,-1.0786220795676
8.0577,-1.01163268706829
8.0578,-0.964933355650245
8.0579,-0.910826548727044
8.058,-0.919522285224306
8.0581,-0.900842555124322
8.0582,-0.879264246924922
8.0583,-0.837073825584149
8.0584,-0.808732170064793
8.0585,-0.760100468551241
8.0586,-0.734657394319287
8.0587,-0.710502577874054
8.0588,-0.632563042350457
8.0589,-0.605509651761217
8.059,-0.578456262117137
8.0591,-0.562353054434965
8.0592,-0.449952673509507
8.0593,-0.33851849883058
8.0594,-0.208082558290991
8.0595,-0.0341679924393821
8.0596,0.0643835860431891
8.0597,0.221550799360458
8.0598,0.334273180645997
8.0599,0.445063175748258
8.06,0.533308694385248
8.0601,0.628317555969598
8.0602,0.694984791740275
8.0603,0.79063778396417
8.0604,0.821555923457189
8.0605,0.870831709006659
8.0606,0.91237796035619
8.0607,0.934600374195712
8.0608,1.07727471869216
8.0609,1.38452380856265
8.061,1.78001859016323
8.0611,2.32334120943983
8.0612,2.90756670437719
8.0613,3.54622224055768
8.0614,4.21418726371358
8.0615,4.86250808748835
8.0616,5.47830210726422
8.0617,6.1118121508242
8.0618,6.73534059564359
8.0619,7.29188074404227
8.062,7.80751993840994
8.0621,8.27839291992529
8.0622,8.71867062490436
8.0623,9.11353720021017
8.0624,9.46428050978357
8.0625,9.76252605350374
8.0626,10.0221228426806
8.0627,10.2350185302191
8.0628,10.4037894531119
8.0629,10.5603215553113
8.063,10.5973610861366
8.0631,10.5973610861366
8.0632,10.5973610861366
8.0633,10.5973610861366
8.0634,10.5973610861366
8.0635,10.5973610861366
8.0636,10.5973610861366
8.0637,10.5973610861366
8.0638,10.5973610861366
8.0639,10.5973610861366
8.064,10.5973610861366
8.0641,10.5973610861366
8.0642,10.5973610861366
8.0643,10.5973610861366
8.0644,10.548726575038
8.0645,10.4920400273123
8.0646,10.4192494012372
8.0647,10.3677162514781
8.0648,10.3229468522772
8.0649,10.266582533191
8.065,10.2173040436807
8.0651,10.152243596116
8.0652,10.0420918570004
8.0653,9.90263092924328
8.0654,9.76059357393921
8.0655,9.59214592494151
8.0656,9.43239470232304
8.0657,9.25589567455522
8.0658,9.09775539090741
8.0659,8.93639458428642
8.066,8.77567818554978
8.0661,8.63654114272738
8.0662,8.50803278618479
8.0663,8.38274533797239
8.0664,8.28837725195406
8.0665,8.1991624459009
8.0666,8.14440971204814
8.0667,8.06389103396661
8.0668,8.02846283364313
8.0669,7.98884767715141
8.067,7.93312882153288
8.0671,7.86388288212947
8.0672,7.78336439934568
8.0673,7.68706436571473
8.0674,7.626514551392
8.0675,7.55211561882402
8.0676,7.47546222043475
8.0677,7.39591021431853
8.0678,7.31023887963202
8.0679,7.19397073216706
8.068,7.09380629034572
8.0681,6.95499331573079
8.0682,6.78204092443951
8.0683,6.57849201973773
8.0684,6.3730109845358
8.0685,6.12630529255071
8.0686,5.91534969618681
8.0687,5.75302680190155
8.0688,5.59360268675924
8.0689,5.50342345598269
8.069,5.40100567240473
8.0691,5.35076300796013
8.0692,5.27700937874118
8.0693,5.2638045836855
8.0694,5.25478667541979
8.0695,5.24576876760175
8.0696,5.21710470642903
8.0697,5.18715237763769
8.0698,5.16428554925848
8.0699,5.11629742562654
8.07,5.00035301638437
8.0701,4.88827348737576
8.0702,4.79938287189195
8.0703,4.65767327601592
8.0704,4.44832973070876
8.0705,4.20484733535314
8.0706,3.92722618314728
8.0707,3.63124758773699
8.0708,3.33881202937593
8.0709,3.09951750401354
8.071,2.91497419972384
8.0711,2.71593807212138
8.0712,2.57809434148635
8.0713,2.40772212964279
8.0714,2.31078069208231
8.0715,2.23928236872298
8.0716,2.15844418663467
8.0717,2.04797609336712
8.0718,1.95328917368636
8.0719,1.90981049117181
8.072,1.8415328625741
8.0721,1.76971253460579
8.0722,1.66343134550532
8.0723,1.59354342040212
8.0724,1.53879251565058
8.0725,1.51657009063753
8.0726,1.39933875635121
8.0727,1.30529604799626
8.0728,1.2283227414651
8.0729,1.12880495910917
8.073,0.989351249941768
8.0731,0.868255197319834
8.0732,0.710765924973678
8.0733,0.518171689369459
8.0734,0.374853237195279
8.0735,0.288862164586638
8.0736,0.137814170622093
8.0737,0.0238035249835146
8.0738,-0.0805452078883501
8.0739,-0.170079003079093
8.074,-0.252527395573467
8.0741,-0.28634412075448
8.0742,-0.328212448633636
8.0743,-0.397778289525647
8.0744,-0.429984699043956
8.0745,-0.452207122267147
8.0746,-0.516297882224198
8.0747,-0.533367281414986
8.0748,-0.569760529928491
8.0749,-0.546571911218774
8.075,-0.512433112644356
8.0751,-0.477650187213202
8.0752,-0.452207122267147
8.0753,-0.434815660568077
8.0754,-0.337874370690229
8.0755,-0.339806755112504
8.0756,-0.324991807968276
8.0757,-0.328856576767914
8.0758,-0.376199995760354
8.0759,-0.433527404159155
8.076,-0.546249847074692
8.0761,-0.618392218589188
8.0762,-0.724673403420907
8.0763,-0.791984828745252
8.0764,-0.869280253833132
8.0765,-0.916301642062616
8.0766,-0.937235822921599
8.0767,-0.9272518288825
8.0768,-0.898588104978547
8.0769,-0.929184214812566
8.077,-0.917589899325234
8.0771,-0.941744723510081
8.0772,-0.916945770693582
8.0773,-0.977493865108767
8.0774,-0.991342632262787
8.0775,-0.999072176865661
8.0776,-1.02580351942569
8.0777,-1.0660615678555
8.0778,-1.10148865291862
8.0779,-1.12467729167983
8.078,-1.16590154088965
8.0781,-1.21260088968747
8.0782,-1.26380914613451
8.0783,-1.24738385575122
8.0784,-1.15462928492205
8.0785,-1.09118259157001
8.0786,-0.984257216468097
8.0787,-0.914369256173829
8.0788,-0.86477135377942
8.0789,-0.813885198249029
8.079,-0.665735653563363
8.0791,-0.564285439339734
8.0792,-0.487956239046423
8.0793,-0.388116366884394
8.0794,-0.297294298655777
8.0795,-0.187148396377415
8.0796,-0.121447336616968
8.0797,-0.0464064241578804
8.0798,0.0225152690621233
8.0799,0.0469921314115923
8.08,0.0543996028481704
8.0801,0.0302448045765408
8.0802,-0.0721715438826013
8.0803,-0.19326761289975
8.0804,-0.325635936100545
8.0805,-0.445443776011154
8.0806,-0.610984742636774
8.0807,-0.788120057731761
8.0808,-0.92564150727886
8.0809,-1.07153666266882
8.081,-1.17105457227118
8.0811,-1.26187675900192
8.0812,-1.30857611687144
8.0813,-1.36461535239001
8.0814,-1.36654773994216
8.0815,-1.38780400355341
8.0816,-1.35237689808105
8.0817,-1.35076657516977
8.0818,-1.28538746963828
8.0819,-1.26574153327478
8.082,-1.17427521691088
8.0821,-1.17298695905258
8.0822,-1.15269689820939
8.0823,-1.15978231619102
8.0824,-1.13369509591669
8.0825,-1.11984632518776
8.0826,-1.09633562221961
8.0827,-1.05800995793527
8.0828,-1.01646365260475
8.0829,-0.956559682827762
8.083,-0.908894162855688
8.0831,-0.82902221877624
8.0832,-0.756557761955997
8.0833,-0.742064871530206
8.0834,-0.684737441240874
8.0835,-0.700840651527741
8.0836,-0.764931432119968
8.0837,-0.800358499351825
8.0838,-0.837073825584149
8.0839,-0.913403063231745
8.084,-0.976205607715936
8.0841,-1.03900815898925
8.0842,-1.07346904908663
8.0843,-1.10020039523923
8.0844,-1.13498335367743
8.0845,-1.15946025173521
8.0846,-1.16268089630238
8.0847,-1.17813999050525
8.0848,-1.17975031284485
8.0849,-1.19166669831597
8.085,-1.20004037476031
8.0851,-1.18297095753928
8.0852,-1.1166256808842
8.0853,-1.08152065923462
8.0854,-1.04544944669458
8.0855,-1.04931421935365
8.0856,-1.05156867008389
8.0857,-1.1166256808842
8.0858,-1.16010438064704
8.0859,-1.19971831027912
8.086,-1.3047113422543
8.0861,-1.42323111178524
8.0862,-1.52951245355332
8.0863,-1.62355535999822
8.0864,-1.67798431235363
8.0865,-1.73370153171717
8.0866,-1.83482991594387
8.0867,-1.92307572611536
8.0868,-1.99682862806825
8.0869,-2.0586651344408
8.087,-2.0586651344408
8.0871,-2.11760306516738
8.0872,-2.10697491295006
8.0873,-2.13177393532575
8.0874,-2.10890730423678
8.0875,-2.1633363301656
8.0876,-2.19747525050872
8.0877,-2.18813535684588
8.0878,-2.17428654950276
8.0879,-2.17106589671788
8.088,-2.14852132812397
8.0881,-2.14948752388864
8.0882,-2.12146784787706
8.0883,-2.09441436986205
8.0884,-2.13789317490219
8.0885,-2.09602469587232
8.0886,-2.10278806520101
8.0887,-2.09312610905948
8.0888,-2.08346415319955
8.0889,-2.08314208800906
8.089,-2.07831111018905
8.0891,-2.06639469853204
8.0892,-2.06414024232036
8.0893,-1.9887770004575
8.0894,-1.99167558637571
8.0895,-1.96719863938469
8.0896,-1.94755267001846
8.0897,-1.95850288231595
8.0898,-1.96784276954656
8.0899,-1.95302777612443
8.09,-1.94723060495607
8.0901,-1.91502410020149
8.0902,-1.90761660452164
8.0903,-1.83128720138408
8.0904,-1.77267138357107
8.0905,-1.7359559858484
8.0906,-1.70793634258118
8.0907,-1.6580162934674
8.0908,-1.6622031360538
8.0909,-1.64738815479181
8.091,-1.6728312751253
8.0911,-1.72500578019182
8.0912,-1.75077097046897
8.0913,-1.82001492801102
8.0914,-1.84062708529711
8.0915,-1.89763258884846
8.0916,-1.92983909202424
8.0917,-1.96268972828497
8.0918,-2.08249795762901
8.0919,-2.1395035011256
8.092,-2.19393253219065
8.0921,-2.22259634516956
8.0922,-2.2554470104366
8.0923,-2.30150236071221
8.0924,-2.35850794371399
8.0925,-2.41712386518646
8.0926,-2.47541773271561
8.0927,-2.46639989609179
8.0928,-2.51116701639412
8.0929,-2.59200550327643
8.093,-2.66382617067442
8.0931,-2.72920553909756
8.0932,-2.78524501050624
8.0933,-2.80972202475809
8.0934,-2.87638969373619
8.0935,-2.95626209309625
8.0936,-3.00553822318965
8.0937,-3.07188387805438
8.0938,-3.07059561273849
8.0939,-3.07961347009449
8.094,-3.10731117695
8.0941,-3.1659272648855
8.0942,-3.22164476863369
8.0943,-3.25256315799671
8.0944,-3.25288522457445
8.0945,-3.30183934967512
8.0946,-3.30377174956648
8.0947,-3.28927875078301
8.0948,-3.29475388354786
8.0949,-3.29088908393543
8.095,-3.2364598296854
8.0951,-3.19040431691433
8.0952,-3.1659272648855
8.0953,-3.13597508626896
8.0954,-3.15336667338918
8.0955,-3.11665110207873
8.0956,-3.13404268777907
8.0957,-3.12599102757417
8.0958,-3.14563707895533
8.0959,-3.11020977436456
8.096,-3.11471870374618
8.0961,-3.09797125218701
8.0962,-3.05771295995803
8.0963,-3.01648847566027
8.0964,-2.97365366730226
8.0965,-2.95690622545255
8.0966,-2.93887052010544
8.0967,-2.96238135054838
8.0968,-2.96044895344197
8.0969,-2.98750251430243
8.097,-2.99748656727305
8.0971,-2.99780863350465
8.0972,-2.93049680020813
8.0973,-2.92502167581111
8.0974,-2.94337944632004
8.0975,-2.91052870004166
8.0976,-2.87574556158586
8.0977,-2.8348431733611
8.0978,-2.77493889992786
8.0979,-2.74595296609015
8.098,-2.77429476803015
8.0981,-2.73790131836578
8.0982,-2.68733697621102
8.0983,-2.74852949341358
8.0984,-2.7176111671814
8.0985,-2.68057359358717
8.0986,-2.68057359358717
8.0987,-2.65480832799524
8.0988,-2.63645057774769
8.0989,-2.6474008145891
8.099,-2.62646653865578
8.0991,-2.55367968389507
8.0992,-2.54498391047799
8.0993,-2.53435574333173
8.0994,-2.51535386972927
8.0995,-2.53693226866387
8.0996,-2.52823649576174
8.0997,-2.53113508669949
8.0998,-2.55851066924275
8.0999,-2.55078109272625
8.1,-2.5018092629525
8.1001,-2.46605998143179
8.1002,-2.41839427956675
8.1003,-2.35494737750625
8.1004,-2.25124231742108
8.1005,-2.10985566009938
8.1006,-1.99874318159215
8.1007,-1.78811266704968
8.1008,-1.63642012232709
8.1009,-1.46282723746503
8.101,-1.26733403336227
8.1011,-1.1050135415795
8.1012,-0.928200204383922
8.1013,-0.773931415363062
8.1014,-0.57779432045371
8.1015,-0.35557008336362
8.1016,-0.166196424834096
8.1017,0.0125490946530651
8.1018,0.164241223788012
8.1019,0.273098839363811
8.102,0.351038313602045
8.1021,0.358445784230886
8.1022,0.348139738136031
8.1023,0.288235844799039
8.1024,0.296287443411617
8.1025,0.278251862497264
8.1026,0.257961833868293
8.1027,0.213194944883453
8.1028,0.164885351702922
8.1029,-0.000333464626881868
8.103,-0.174892153385215
8.1031,-0.392929516550806
8.1032,-0.602593260651269
8.1033,-0.821918988774248
8.1034,-1.0869779344995
8.1035,-1.29793016370413
8.1036,-1.4489784574773
8.1037,-1.63738631669475
8.1038,-1.73561608966706
8.1039,-1.78360375827813
8.104,-1.82772665358777
8.1041,-1.83738860216376
8.1042,-1.84060925174528
8.1043,-1.76589018862444
8.1044,-1.71758045737721
8.1045,-1.6396407702283
8.1046,-1.52981669106672
8.1047,-1.45992865557111
8.1048,-1.36652991572022
8.1049,-1.32047468204527
8.105,-1.34044268490025
8.1051,-1.29084474387355
8.1052,-1.27087674309248
8.1053,-1.30984655183728
8.1054,-1.2930991956265
8.1055,-1.2467219045315
8.1056,-1.20678590736199
8.1057,-1.19905635988966
8.1058,-1.16362926880629
8.1059,-1.17135881574344
8.106,-1.17747804048412
8.1061,-1.19068268359414
8.1062,-1.16588371998436
8.1063,-1.22288913164313
8.1064,-1.22256706715244
8.1065,-1.21354926149727
8.1066,-1.23802616293974
8.1067,-1.29760809916411
8.1068,-1.38134488696387
8.1069,-1.43931651820788
8.107,-1.47667601788934
8.1071,-1.55461567414721
8.1072,-1.58746627737021
8.1073,-1.56524381020069
8.1074,-1.55461567414721
8.1075,-1.54914057386115
8.1076,-1.52820636754031
8.1077,-1.51693410302596
8.1078,-1.4776422118888
8.1079,-1.43706206574193
8.108,-1.36814023865841
8.1081,-1.23158487297007
8.1082,-1.15976449538098
8.1083,-1.12272708483667
8.1084,-1.01998854196132
8.1085,-0.976187789600582
8.1086,-0.904367445366282
8.1087,-0.920792725129763
8.1088,-0.878602301522513
8.1089,-0.779084443215051
8.109,-0.709840634681684
8.1091,-0.665717839289201
8.1092,-0.622561239043364
8.1093,-0.582625282769018
8.1094,-0.608068351449592
8.1095,-0.68214311317356
8.1096,-0.778440314731401
8.1097,-0.852837158740095
8.1098,-0.999698487144381
8.1099,-1.14011856424543
8.11,-1.21387132598217
8.1101,-1.31983055293498
8.1102,-1.49245718681597
8.1103,-1.62450372531575
8.1104,-1.68730636219645
8.1105,-1.72853066259585
8.1106,-1.79197744603965
8.1107,-1.76170334500883
8.1108,-1.72369968966716
8.1109,-1.74173532224239
8.111,-1.6953579830269
8.1111,-1.68923875118074
8.1112,-1.65542194531703
8.1113,-1.56266729234475
8.1114,-1.48343937593058
8.1115,-1.43674000110487
8.1116,-1.39422747104313
8.1117,-1.369428497013
8.1118,-1.34334126603036
8.1119,-1.34366333060148
8.112,-1.3761918534337
8.1121,-1.36169894693933
8.1122,-1.39261714801334
8.1123,-1.49632196296718
8.1124,-1.54334340893002
8.1125,-1.66572801918011
8.1126,-1.73336163558485
8.1127,-1.79133331620523
8.1128,-1.81226753638994
8.1129,-1.88441008886533
8.113,-1.88344389387199
8.1131,-1.89374997393415
8.1132,-1.9249902809294
8.1133,-1.91822691526587
8.1134,-1.95848504611855
8.1135,-1.99584459568205
8.1136,-2.0077610045794
8.1137,-2.07893740152616
8.1138,-2.1285354427206
8.1139,-2.24834372928414
8.114,-2.31372300160348
8.1141,-2.3797464188406
8.1142,-2.40712198633572
8.1143,-2.49601208186452
8.1144,-2.62129563287386
8.1145,-2.71984777193724
8.1146,-2.80326284604111
8.1147,-2.90954463939751
8.1148,-2.9813653916274
8.1149,-3.04481244117765
8.115,-3.12017596318573
8.1151,-3.12082009595454
8.1152,-3.13305861889317
8.1153,-3.14400887679418
8.1154,-3.09698718466655
8.1155,-3.09376652116106
8.1156,-3.07218807678754
8.1157,-3.06478055155241
8.1158,-3.03225185645974
8.1159,-2.97556820009753
8.116,-2.94078505375509
8.1161,-2.88345728603653
8.1162,-2.82967225726551
8.1163,-2.74303651577001
8.1164,-2.61356605484077
8.1165,-2.57073131380309
8.1166,-2.51565808491448
8.1167,-2.40164687263533
8.1168,-2.33143659993998
8.1169,-2.22708741709635
8.117,-2.1423842477639
8.1171,-2.02644078152061
8.1172,-1.95719678586009
8.1173,-1.85993314982698
8.1174,-1.77329768128803
8.1175,-1.74173532224239
8.1176,-1.68376364908318
8.1177,-1.61935068887878
8.1178,-1.53819037350256
8.1179,-1.40936450780231
8.118,-1.35976655944109
8.1181,-1.27474151737301
8.1182,-1.21838022879239
8.1183,-1.15106875527904
8.1184,-1.10726799250694
8.1185,-1.05573768793431
8.1186,-1.00678390303035
8.1187,-0.98069669042559
8.1188,-0.982307012157263
8.1189,-0.954931543321141
8.119,-0.91370731027561
8.1191,-0.873449272881756
8.1192,-0.830614723927538
8.1193,-0.82771614553018
8.1194,-0.807426097109329
8.1195,-0.796153848256979
8.1196,-0.752675175886541
8.1197,-0.751064854740965
8.1198,-0.685041690956107
8.1199,-0.678600407010531
8.12,-0.700822836864385
8.1201,-0.686329947752054
8.1202,-0.626426009114407
8.1203,-0.589710694217844
8.1204,-0.588422437586077
8.1205,-0.55943666392047
8.1206,-0.50082099141062
8.1207,-0.486006041856364
8.1208,-0.400981118718046
8.1209,-0.349128801921278
8.121,-0.26507008273023
8.1211,-0.18068930578546
8.1212,-0.0734419904376516
8.1213,0.0479761321966329
8.1214,0.0982181115971394
8.1215,0.145561514184076
8.1216,0.10594764678145
8.1217,0.0354156371454946
8.1218,-0.0476768708268968
8.1219,-0.161687528571378
8.122,-0.272155491759142
8.1221,-0.31499001095156
8.1222,-0.336890367293133
8.1223,-0.39550602923699
8.1224,-0.379724889141582
8.1225,-0.351383250421434
8.1226,-0.304361897008751
8.1227,-0.238982895322695
8.1228,-0.103716006545885
8.1229,0.00707400697069479
8.123,0.106913838677558
8.1231,0.152002793373666
8.1232,0.226721630829278
8.1233,0.308847937216886
8.1234,0.317543663676831
8.1235,0.388075666660898
8.1236,0.455064965694607
8.1237,0.473100546149231
8.1238,0.490491998720793
8.1239,0.52527490386003
8.124,0.554260658167763
8.1241,0.537191269515285
8.1242,0.524952839923468
8.1243,0.561668128720433
8.1244,0.605146760319799
8.1245,0.625436788472605
8.1246,0.629623619685876
8.1247,0.620283765444379
8.1248,0.623504404836576
8.1249,0.644116496983473
8.125,0.584856732217203
8.1251,0.517223305446795
8.1252,0.499187725004944
8.1253,0.445403047587379
8.1254,0.395161073310929
8.1255,0.356835464529747
8.1256,0.378413748491183
8.1257,0.347173546313699
8.1258,0.249910235174518
8.1259,0.176157590188029
8.126,0.115287501759447
8.1261,0.0763177617553058
8.1262,-0.0199793677150373
8.1263,-0.0705434144597698
8.1264,-0.139787175515289
8.1265,-0.148482903891342
8.1266,-0.166840552872907
8.1267,-0.214506028656225
8.1268,-0.200013147312481
8.1269,-0.190029162486198
8.127,-0.197758699118869
8.1271,-0.188096778335522
8.1272,-0.181655497854741
8.1273,-0.19260567469175
8.1274,-0.209675068189146
8.1275,-0.19582631495619
8.1276,-0.155246248223104
8.1277,-0.167806744931725
8.1278,-0.0934099584386128
8.1279,-0.0753743744260085
8.128,-0.0992071104898778
8.1281,-0.0908334464232656
8.1282,-0.0966305984642236
8.1283,-0.0901893184201402
8.1284,-0.154602120190015
8.1285,-0.200657275368556
8.1286,-0.263781826547952
8.1287,-0.333669726625764
8.1288,-0.42803450249963
8.1289,-0.48407365715048
8.129,-0.542367264357699
8.1291,-0.560402856359203
8.1292,-0.534637725049254
8.1293,-0.539790751246886
8.1294,-0.572641294016198
8.1295,-0.654123528531906
8.1296,-0.695991873794615
8.1297,-0.747844212461093
8.1298,-0.807104032853739
8.1299,-0.844463487561021
8.13,-0.892451066205353
8.1301,-0.886331844563299
8.1302,-0.974255403543382
8.1303,-1.03738001809594
8.1304,-1.06604374846049
8.1305,-1.15525559308778
8.1306,-1.1317448889031
8.1307,-1.1707146868276
8.1308,-1.27764009810358
8.1309,-1.27602977547335
8.131,-1.31242306822951
8.1311,-1.39519366486374
8.1312,-1.41773818792936
8.1313,-1.43963858284681
8.1314,-1.48537176396167
8.1315,-1.52885049695014
8.1316,-1.46604788403626
8.1317,-1.35074875122231
8.1318,-1.28086074338008
8.1319,-1.22385532511642
8.132,-1.24124680795591
8.1321,-1.26314719462338
8.1322,-1.35364733241642
8.1323,-1.43448554865197
8.1324,-1.4818290525779
8.1325,-1.5236974616988
8.1326,-1.50695009756151
8.1327,-1.53013875577273
8.1328,-1.48376144060183
8.1329,-1.50308532131505
8.133,-1.4818290525779
8.1331,-1.44221509996661
8.1332,-1.42128089879924
8.1333,-1.41870438180019
8.1334,-1.31789816560936
8.1335,-1.20807416528553
8.1336,-1.13528759768555
8.1337,-1.0534832372198
8.1338,-0.952355028672629
8.1339,-0.803561326052618
8.134,-0.668938481198402
8.1341,-0.614509634791069
8.1342,-0.567810331761034
8.1343,-0.510804979297161
8.1344,-0.492447324240198
8.1345,-0.553317445168425
8.1346,-0.599050554861027
8.1347,-0.699534580042607
8.1348,-0.835767752221538
8.1349,-0.981662883464059
8.135,-1.08246903282331
8.1351,-1.15106875527904
8.1352,-1.25155287214862
8.1353,-1.34076474946938
8.1354,-1.41612786481591
8.1355,-1.52562984991074
8.1356,-1.5655658749338
8.1357,-1.58263530614514
8.1358,-1.6154859115939
8.1359,-1.64640413090468
8.136,-1.62997882660172
8.1361,-1.62933469703483
8.1362,-1.63416566881153
8.1363,-1.62869056746896
8.1364,-1.63770838148449
8.1365,-1.60421364472204
8.1366,-1.55300535052625
8.1367,-1.55751425668049
8.1368,-1.54398753836288
8.1369,-1.52595191461359
8.137,-1.48794828134984
8.1371,-1.46314930212109
8.1372,-1.42772219136163
8.1373,-1.39648192329442
8.1374,-1.33367932899968
8.1375,-1.27409738832412
8.1376,-1.20356526256751
8.1377,-1.12788011571298
8.1378,-1.11564166746331
8.1379,-1.08729999890638
8.138,-1.0721629719891
8.1381,-1.03705795371819
8.1382,-0.967492052393404
8.1383,-0.968780309749292
8.1384,-0.949456449706418
8.1385,-0.921436853756964
8.1386,-0.893095194802766
8.1387,-0.834479495144188
8.1388,-0.810002611159715
8.1389,-0.75815026780971
8.139,-0.706297928382756
8.1391,-0.681176920581938
8.1392,-0.660886876451679
8.1393,-0.647038116491138
8.1394,-0.612577249783009
8.1395,-0.588744501743822
8.1396,-0.602271196487857
8.1397,-0.608390415615397
8.1398,-0.59293133580644
8.1399,-0.601949132324578
8.14,-0.602593260651269
8.1401,-0.562013177092975
8.1402,-0.556538086611151
8.1403,-0.593897528285581
8.1404,-0.558792535628619
8.1405,-0.518856582516529
8.1406,-0.522399287957282
8.1407,-0.508872594535844
8.1408,-0.473123477230718
8.1409,-0.458952656358736
8.141,-0.419338771913606
8.1411,-0.314667946891125
8.1412,-0.242525599750765
8.1413,-0.264103890593384
8.1414,-0.220303181242258
8.1415,-0.237372575131676
8.1416,-0.239627023399724
8.1417,-0.238016703207817
8.1418,-0.250899264805623
8.1419,-0.240915279554851
8.142,-0.22642239789131
8.1421,-0.201945531481718
8.1422,-0.26571421082192
8.1423,-0.286648374004205
8.1424,-0.249288944598045
8.1425,-0.24445798398881
8.1426,-0.202267595510219
8.1427,-0.167484680912039
8.1428,-0.0850362944053348
8.1429,-0.0335060552219719
8.143,-0.0164366638625231
8.1431,0.0602145631925329
8.1432,0.158766136504719
8.1433,0.2019227065489
8.1434,0.219636223912688
8.1435,0.247333723588568
8.1436,0.289846164522809
8.1437,0.351682441483183
8.1438,0.37293866152257
8.1439,0.384532963333464
8.144,0.437029385223039
8.1441,0.481796272435809
8.1442,0.515935049700813
8.1443,0.4946788298947
8.1444,0.528817607162419
8.1445,0.557159233600979
8.1446,0.561668128720433
8.1447,0.560701936909003
8.1448,0.61352042272543
8.1449,0.603214376688969
8.145,0.609011527582833
8.1451,0.573906558338017
8.1452,0.524630775986909
8.1453,0.536225077705197
8.1454,0.550717954861215
8.1455,0.55329446635681
8.1456,0.46762545922689
8.1457,0.494356765958251
8.1458,0.447979559083175
8.1459,0.450878134515467
8.146,0.441216216405806
8.1461,0.417705548976968
8.1462,0.398381712695265
8.1463,0.357157528470009
8.1464,0.337833692022471
8.1465,0.351682441483183
8.1466,0.338477819905141
8.1467,0.35490308088781
8.1468,0.297897763132276
8.1469,0.304983169896019
8.147,0.290812356356767
8.1471,0.276963606714547
8.1472,0.271488519633182
8.1473,0.267945816223371
8.1474,0.259572153604846
8.1475,0.272454711471642
8.1476,0.250554363070704
8.1477,0.294032995801665
8.1478,0.217703840205348
8.1479,0.174869334363606
8.148,0.11238892608083
8.1481,0.0917768322556382
8.1482,0.092420960190667
8.1483,0.0283302296433984
8.1484,-0.0528298947146822
8.1485,-0.10854696662169
8.1486,-0.140431303541211
8.1487,-0.194215994822926
8.1488,-0.248000688433604
8.1489,-0.291157270741585
8.149,-0.30146332049724
8.1491,-0.388742683450411
8.1492,-0.435119912666897
8.1493,-0.425457989724951
8.1494,-0.486972234210907
8.1495,-0.488582554804187
8.1496,-0.538824558832396
8.1497,-0.543655520916114
8.1498,-0.515958005348764
8.1499,-0.462817425665172
8.15,-0.47602205425507
8.1501,-0.505651953276686
8.1502,-0.557826343191798
8.1503,-0.594863720765907
8.1504,-0.639952704517153
8.1505,-0.655411785273798
8.1506,-0.696636002202044
8.1507,-0.734639579270139
8.1508,-0.84865032313685
8.1509,-0.881178815858802
8.151,-0.906299831197904
8.1511,-0.952677093003081
8.1512,-1.04156685502347
8.1513,-1.09535160914035
8.1514,-1.07989251759653
8.1515,-1.12433740698014
8.1516,-1.18456345869594
8.1517,-1.17007055791256
8.1518,-1.14108475756272
8.1519,-1.19358126383469
8.152,-1.25123080763934
8.1521,-1.20904035873034
8.1522,-1.19358126383469
8.1523,-1.22127880919178
8.1524,-1.19970048884119
8.1525,-1.20581971392149
8.1526,-1.15332320640264
8.1527,-1.12240502040856
8.1528,-1.08472348365674
8.1529,-0.979730497388725
8.153,-0.916283824758485
8.1531,-0.89084074471475
8.1532,-0.825461695674514
8.1533,-0.775219672322375
8.1534,-0.753641368575695
8.1535,-0.712417148364689
8.1536,-0.628358394157241
8.1537,-0.605491838127947
8.1538,-0.655411785273798
8.1539,-0.789712563284355
8.154,-0.886653908858747
8.1541,-0.954287414657963
8.1542,-1.11306515207815
8.1543,-1.19164887700583
8.1544,-1.2567059043258
8.1545,-1.27892835621161
8.1546,-1.39809224633789
8.1547,-1.47248917724972
8.1548,-1.54624199138562
8.1549,-1.638996640646
8.155,-1.67635615813083
8.1551,-1.62804643790411
8.1552,-1.64350554774374
8.1553,-1.6605749822153
8.1554,-1.60968874573525
8.1555,-1.57619401126604
8.1556,-1.58263530614514
8.1557,-1.57168510491014
8.1558,-1.48086285856915
8.1559,-1.45670800904471
8.156,-1.42256915730432
8.1561,-1.36137688235573
8.1562,-1.25541764627644
8.1563,-1.27602977547335
8.1564,-1.27635183999897
8.1565,-1.20678590736199
8.1566,-1.18456345869594
8.1567,-1.13110076003612
8.1568,-1.07892632438963
8.1569,-1.06539961967196
8.157,-1.06411136209718
8.1571,-1.03480350307915
8.1572,-0.981662883464059
8.1573,-0.930776718928387
8.1574,-0.905655702586687
8.1575,-0.885043587383179
8.1576,-0.888264230338484
8.1577,-0.879246430105589
8.1578,-0.921114789443278
8.1579,-0.880534687273734
8.158,-0.914029374585374
8.1581,-0.848972387413048
8.1582,-0.864109408578078
8.1583,-0.833835366606476
8.1584,-0.783593342617847
8.1585,-0.739792606827002
8.1586,-0.71145095573247
8.1587,-0.637054126910584
8.1588,-0.556538086611151
8.1589,-0.478276503058362
8.159,-0.44993486137487
8.1591,-0.368774710449461
8.1592,-0.30661634541201
8.1593,-0.301141256440888
8.1594,-0.258950865877485
8.1595,-0.174248025342371
8.1596,-0.0937320224408521
8.1597,-0.0505754467616907
8.1598,0.0669779066047269
8.1599,0.142662938543216
8.16,0.21351700883524
8.1601,0.249266107278212
8.1602,0.254097066497589
8.1603,0.275997414877228
8.1604,0.28565933323968
8.1605,0.313356832420383
8.1606,0.308203809330306
8.1607,0.333002732899942
8.1608,0.379057876369562
8.1609,0.412874589910209
8.161,0.445080983650376
8.1611,0.495322957767597
8.1612,0.581314028902131
8.1613,0.622216149079521
8.1614,0.62318234089729
8.1615,0.607401207889676
8.1616,0.649913647912145
8.1617,0.672780187745497
8.1618,0.697901175289368
8.1619,0.662474141611282
8.162,0.643794433043158
8.1621,0.674712571397994
8.1622,0.685018617557626
8.1623,0.629623619685876
8.1624,0.595806906108191
8.1625,0.549429699113564
8.1626,0.473422610085808
8.1627,0.43091017041513
8.1628,0.415451101412765
8.1629,0.466659267416954
8.163,0.417705548976968
8.1631,0.337189564139724
8.1632,0.354258953007026
8.1633,0.350072121780203
8.1634,0.300152210740178
8.1635,0.308847937216886
8.1636,0.288879972688623
8.1637,0.237027677225118
8.1638,0.256673578078528
8.1639,0.273098839363811
8.164,0.254741194393001
8.1641,0.237027677225118
8.1642,0.200634450736471
8.1643,0.248299915433526
8.1644,0.246045467794865
8.1645,0.241536572513038
8.1646,0.256995642026013
8.1647,0.267945816223371
8.1648,0.310136192989769
8.1649,0.352970697245246
8.165,0.362954679391828
8.1651,0.389041858477186
8.1652,0.410620142344923
8.1653,0.409976014469031
8.1654,0.471812290402889
8.1655,0.481152144562793
8.1656,0.488237551165537
8.1657,0.504662811924511
8.1658,0.571974174713389
8.1659,0.609655655460187
8.166,0.58711117978198
8.1661,0.564888768092356
8.1662,0.588399435533511
8.1663,0.537191269515285
8.1664,0.48920374297494
8.1665,0.47921976094369
8.1666,0.498543597132056
8.1667,0.455709093568238
8.1668,0.379702004247883
8.1669,0.367141510609808
8.167,0.387109474844489
8.1671,0.388075666660898
8.1672,0.313356832420383
8.1673,0.310136192989769
8.1674,0.300152210740178
8.1675,0.311424448762286
8.1676,0.295965379467412
8.1677,0.249910235174518
8.1678,0.226077502928433
8.1679,0.186785700715966
8.168,0.214483200690394
8.1681,0.176157590188029
8.1682,0.171004566886573
8.1683,0.186463636761184
8.1684,0.136543723289931
8.1685,0.111100670222456
8.1686,0.0621469470269532
8.1687,0.028974357599263
8.1688,-0.0508975107547762
8.1689,-0.0779508864143616
8.169,-0.108224902616125
8.1691,-0.136566535390288
8.1692,-0.170705321112521
8.1693,-0.261849442277292
8.1694,-0.273443747951034
8.1695,-0.303717768894406
8.1696,-0.38326759403868
8.1697,-0.403235567336986
8.1698,-0.477954438943253
8.1699,-0.475377926026615
8.17,-0.573607486470711
8.1701,-0.629002522505938
8.1702,-0.670226737966018
8.1703,-0.691160910757215
8.1704,-0.768456323313305
8.1705,-0.831580916729537
8.1706,-0.833835366606476
8.1707,-0.859922572900594
8.1708,-0.878924365813968
8.1709,-0.915961760447529
8.171,-0.905011573976147
8.1711,-0.894705516299233
8.1712,-0.920792725129763
8.1713,-0.903401252452753
8.1714,-0.892773130503976
8.1715,-0.931420847566224
8.1716,-1.01354725463969
8.1717,-1.04833020704957
8.1718,-1.03126079495036
8.1719,-1.08601174128003
8.172,-1.17200294466009
8.1721,-1.18617378103047
8.1722,-1.16749404226043
8.1723,-1.13045663116993
8.1724,-1.13754204874131
8.1725,-1.20485352048284
8.1726,-1.21773609981702
8.1727,-1.22063468021269
8.1728,-1.22546564757606
8.1729,-1.19454745725187
8.173,-1.22933042150039
8.1731,-1.16523959107534
8.1732,-1.17586771817689
8.1733,-1.13045663116993
8.1734,-1.13110076003612
8.1735,-1.08858825653578
8.1736,-1.07248503638723
8.1737,-1.07280710078555
8.1738,-1.07441742277999
8.1739,-1.07634980917957
8.174,-1.12208295598065
8.1741,-1.07699393798094
8.1742,-1.13271108220505
8.1743,-1.15332320640264
8.1744,-1.18713997443362
8.1745,-1.14945843305385
8.1746,-1.18005455618619
8.1747,-1.16781610671624
8.1748,-1.12304914926497
8.1749,-1.09599573796424
8.175,-1.15589972198441
8.1751,-1.17522358925541
8.1752,-1.18842823230733
8.1753,-1.14011856424543
8.1754,-1.14559365973363
8.1755,-1.10791212134508
8.1756,-1.10404734832779
8.1757,-1.16652784889419
8.1758,-1.18005455618619
8.1759,-1.15944243093017
8.176,-1.09052064298561
8.1761,-1.0612127825649
8.1762,-1.02836221558884
8.1763,-1.03738001809594
8.1764,-0.975221596571184
8.1765,-0.932064976204749
8.1766,-0.895027580599029
8.1767,-0.798730362263474
8.1768,-0.764269488246197
8.1769,-0.753641368575695
8.177,-0.745911827100378
8.1771,-0.704687607343597
8.1772,-0.693737424373141
8.1773,-0.70307728630806
8.1774,-0.666684031860487
