4.5,0.0291786480981276
4.5001,0.0710469644661954
4.5002,0.0794206276356931
4.5003,0.0681483887458371
4.5004,0.0378743754175068
4.5005,-0.012045541234088
4.5006,-0.0896629629435356
4.5007,-0.089985026942045
4.5008,-0.0751700830817811
4.5009,-0.0452181317972049
4.501,-0.0481167077032872
4.5011,-0.0577786274280203
4.5012,-0.0384547880364518
4.5013,-0.0961042429269468
4.5014,-0.186926293822267
4.5015,-0.21591205606122
4.5016,-0.165348004583223
4.5017,-0.160194980339849
4.5018,-0.194011702307875
4.5019,-0.123801747179032
4.502,-0.0703391231584507
4.5021,-0.0571344994445492
4.5022,-0.0336238282244189
4.5023,0.0208049847156317
4.5024,-0.029759060384938
4.5025,-0.103511714942555
4.5026,-0.0928836029317554
4.5027,-0.0838658109821847
4.5028,-0.0271825484969246
4.5029,-0.00785870946155219
4.503,-0.0465063877548222
4.5031,-0.0677626112055138
4.5032,-0.074525955091128
4.5033,-0.0403871719652373
4.5034,-0.0651860992568453
4.5035,-0.0742038910959027
4.5036,-0.101901394935983
4.5037,-0.10479997094909
4.5038,-0.157618468225642
4.5039,-0.138938755544747
4.504,-0.0912732829367765
4.5041,-0.0890188349467248
4.5042,-0.028148740454465
4.5043,-0.0548800515044589
4.5044,-0.0497270276533605
4.5045,-0.0999690109304336
4.5046,-0.135396051444401
4.5047,-0.12412381118511
4.5048,-0.143125587675081
4.5049,-0.162449428443865
4.505,-0.204639815110723
4.5051,-0.222031272620454
4.5052,-0.231693193566221
4.5053,-0.231693193566221
4.5054,-0.243931626875972
4.5055,-0.238134474239874
4.5056,-0.171145156881028
4.5057,-0.127344451249936
4.5058,-0.0581006914198541
4.5059,-0.0506932196241784
4.506,-0.0568124354529118
4.5061,-0.0561683074698331
4.5062,-0.0645419712703428
4.5063,-0.13668430747984
4.5064,-0.105122034950902
4.5065,-0.0558462434783917
4.5066,0.010176873444744
4.5067,0.0214491126694676
4.5068,0.0349757996487909
4.5069,-0.00624838955172004
4.507,-0.00946902937287154
4.5071,0.000837018033996228
4.5072,-0.0268604845112015
4.5073,-0.0539138595311124
4.5074,-0.0622875233196707
4.5075,-0.0384547880364518
4.5076,-0.110275058989594
4.5077,-0.0677626112055138
4.5078,-0.042641619885039
4.5079,-0.0445740038187803
4.508,-0.0986807549281456
4.5081,-0.11510601904256
4.5082,-0.158906724282125
4.5083,-0.137972563516479
4.5084,-0.0893408989450955
4.5085,-0.186282165780071
4.5086,-0.158262596253728
4.5087,-0.102223458937156
4.5088,-0.106732354961028
4.5089,-0.103189650941099
4.509,-0.159872916325302
4.5091,-0.16792451671243
4.5092,-0.155364020129781
4.5093,-0.160839108369178
4.5094,-0.155041956116396
4.5095,-0.135396051444401
4.5096,-0.084187874979452
4.5097,-0.144091779706973
4.5098,-0.165025940567426
4.5099,-0.152787508024858
4.51,-0.179196757337226
4.5101,-0.175654053130367
4.5102,-0.172111348933148
4.5103,-0.0922394749335549
4.5104,-0.10415584294568
4.5105,-0.114783955038523
4.5106,-0.187248357843486
4.5107,-0.258424508591289
4.5108,-0.250694971654091
4.5109,-0.28869852876408
4.511,-0.278714543298444
4.5111,-0.270018814094053
4.5112,-0.243287498803892
4.5113,-0.24489781898475
4.5114,-0.231693193566221
4.5115,-0.223963656803436
4.5116,-0.194011702307875
4.5117,-0.204639815110723
4.5118,-0.209470775505508
4.5119,-0.197232342541682
4.512,-0.201419174857936
4.5121,-0.213335543834896
4.5122,-0.23201525759908
4.5123,-0.247474331278701
4.5124,-0.279680735436394
4.5125,-0.289342656861703
4.5126,-0.30512379537086
4.5127,-0.361485006230873
4.5128,-0.388538388540748
4.5129,-0.365349775087672
4.513,-0.319294613818724
4.5131,-0.291597105206325
4.5132,-0.280324863528822
4.5133,-0.250372907616153
4.5134,-0.191757254149084
4.5135,-0.140227011583491
4.5136,-0.146346227784045
4.5137,-0.13410779541016
4.5138,-0.120581107122285
4.5139,-0.0777465950471003
4.514,-0.0558462434783917
4.5141,-0.0268604845112015
4.5142,-0.0780686590430703
4.5143,-0.0655081632501961
4.5144,-0.0609992673493117
4.5145,-0.0719494431312126
4.5146,-0.11768253107746
4.5147,-0.0890188349467248
4.5148,-0.0561683074698331
4.5149,-0.0458622597758854
4.515,-0.0857981949668197
4.5151,-0.0967483709268251
4.5152,0.00180320997530221
4.5153,0.0249918164115724
4.5154,-0.00850283742590119
4.5155,-0.034912084172912
4.5156,-0.0503711556338412
4.5157,-0.0497270276533605
4.5158,-0.118648723091746
4.5159,-0.185315973717385
4.516,-0.177264373223195
4.5161,-0.162771492459036
4.5162,-0.207860455371826
4.5163,-0.222353336650738
4.5164,-0.201419174857936
4.5165,-0.138616691535249
4.5166,-0.149244803888623
4.5167,-0.110919186995719
4.5168,-0.0835437469849859
4.5169,-0.103189650941099
4.517,-0.145380035750558
4.5171,-0.192401382194044
4.5172,-0.166314196631087
4.5173,-0.165992132615054
4.5174,-0.13668430747984
4.5175,-0.118970787096654
4.5176,-0.109630930983755
4.5177,-0.131209219337481
4.5178,-0.200775046808374
4.5179,-0.225251912927133
4.518,-0.194977894377155
4.5181,-0.221065080530115
4.5182,-0.179518821356511
4.5183,-0.210759031613961
4.5184,-0.217844440234512
4.5185,-0.19787647058943
4.5186,-0.161805300413756
4.5187,-0.105766162954738
4.5188,-0.0278266764685563
4.5189,-0.0455401957865132
4.519,-0.0345900201856947
4.5191,-0.0162323730167623
4.5192,0.0568761497943088
4.5193,0.0195167288072869
4.5194,-0.00946902937287154
4.5195,-0.0465063877548222
4.5196,-0.0258942925544027
4.5197,0.0172622809655187
4.5198,-0.00463806964337025
4.5199,-0.0184868209039701
4.52,0.0217711766463016
4.5201,0.049790742421037
4.5202,0.0237035605061327
4.5203,0.112915279989329
4.5204,0.0942355700856453
4.5205,0.0295007120736301
4.5206,-0.00012917390783574
4.5207,-0.0468284517443868
4.5208,-0.0742038910959027
4.5209,-0.068406739193347
4.521,-0.0722715071259664
4.5211,-0.0345900201856947
4.5212,0.000514954053444067
4.5213,-0.0204192048096604
4.5214,0.0114651293596635
4.5215,0.02885658412257
4.5216,0.0449597828337933
4.5217,0.0211270486925776
4.5218,-0.0229957166873315
4.5219,0.0143637051648921
4.522,0.0713690284348736
4.5221,0.0636394931727195
4.5222,0.0356199275977738
4.5223,0.00212527395562084
4.5224,0.00599004171490906
4.5225,0.0285345201469574
4.5226,-0.00657045353356773
4.5227,-0.0017394938120607
4.5228,0.0253138803877934
4.5229,0.0133975132303286
4.523,0.034653735674218
4.5231,0.0243476884589638
4.5232,-0.01913094887229
4.5233,-0.0529476675583512
4.5234,-0.0822554909968765
4.5235,-0.0838658109821847
4.5236,-0.122191427149743
4.5237,-0.109308866980943
4.5238,-0.0796789790239401
4.5239,-0.029759060384938
4.524,-0.00141742983109836
4.5241,-0.0149441170825468
4.5242,0.0275683282197886
4.5243,-0.0194530128565413
4.5244,-0.00334981371775445
4.5245,0.0542996380251269
4.5246,0.0845736511081112
4.5247,0.0472142306426535
4.5248,0.00212527395562084
4.5249,-0.00914696539048846
4.525,-0.0477946437134657
4.5251,0.0133975132303286
4.5252,0.02885658412257
4.5253,0.0140416411867611
4.5254,0.010176873444744
4.5255,-0.0039939416804443
4.5256,-0.0603551393645276
4.5257,-0.0825775549938011
4.5258,-0.0957821789271129
4.5259,-0.0767804030595974
4.526,-0.00431600566187774
4.5261,-0.0626095873124254
4.5262,-0.0993248829291486
4.5263,-0.106088226956763
4.5264,-0.0271825484969246
4.5265,-0.0258942925544027
4.5266,-0.0622875233196707
4.5267,-0.0397430439887223
4.5268,-0.0165544370004674
4.5269,-0.0767804030595974
4.527,-0.118648723091746
4.5271,-0.147312419818218
4.5272,-0.114139827030668
4.5273,-0.195299958400413
4.5274,-0.193367574262097
4.5275,-0.17533198911204
4.5276,-0.164703876551707
4.5277,-0.170823092863812
4.5278,-0.132497475369038
4.5279,-0.0816113630032325
4.528,-0.0542359235221628
4.5281,-0.108342674972938
4.5282,-0.121225235133049
4.5283,-0.0848320029741928
4.5284,-0.0494049636632169
4.5285,-0.0925615389326203
4.5286,-0.0677626112055138
4.5287,-0.0194530128565413
4.5288,-0.00753664547946694
4.5289,-0.0922394749335549
4.529,-0.148600675864849
4.5291,-0.117360467072843
4.5292,-0.124445875191261
4.5293,-0.189824870016161
4.5294,-0.177586437242001
4.5295,-0.135718115453149
4.5296,-0.18112914145414
4.5297,-0.143125587675081
4.5298,-0.113495699023101
4.5299,-0.113173635019426
4.53,-0.157296404211716
4.5301,-0.148922739876698
4.5302,-0.0803231070167646
4.5303,-0.0413533639304854
4.5304,-0.0323355722769272
4.5305,-0.0561683074698331
4.5306,-0.00109536585019473
4.5307,0.0140416411867611
4.5308,0.00502384977587022
4.5309,0.00470178579607478
4.531,-0.0271825484969246
4.5311,-0.0336238282244189
4.5312,-0.122513491155454
4.5313,-0.162771492459036
4.5314,-0.148600675864849
4.5315,-0.162449428443865
4.5316,-0.189502805994292
4.5317,-0.233947641798052
4.5318,-0.210759031613961
4.5319,-0.229438745338624
4.532,-0.27581596688956
4.5321,-0.227506361146901
4.5322,-0.17533198911204
4.5323,-0.179518821356511
4.5324,-0.241999242660786
4.5325,-0.248762587427795
4.5326,-0.183061525573946
4.5327,-0.124445875191261
4.5328,-0.0655081632501961
4.5329,-0.11575014705085
4.533,-0.0581006914198541
4.5331,-0.0374885960729124
4.5332,-0.0539138595311124
4.5333,-0.052303539576835
4.5334,-0.053591795540127
4.5335,-0.0513373476050468
4.5336,-0.0944939229284772
4.5337,-0.133463667393487
4.5338,-0.0857981949668197
4.5339,-0.0819334270000203
4.534,-0.0832216829878557
4.5341,-0.0184868209039701
4.5342,0.0195167288072869
4.5343,-0.0558462434783917
4.5344,-0.0742038910959027
4.5345,-0.071627379136526
4.5346,-0.0761362750682679
4.5347,-0.0735597631056545
4.5348,-0.0429636838738365
4.5349,-0.0387768520244246
4.535,-0.0935277309302347
4.5351,-0.111563315002133
4.5352,-0.0764583390638988
4.5353,-0.0503711556338412
4.5354,-0.112529507012293
4.5355,-0.128310643270822
4.5356,-0.0432857478626977
4.5357,-0.0275046124827095
4.5358,-0.0307252523439669
4.5359,-0.0738818271007449
4.536,-0.0571344994445492
4.5361,-0.0658302272436133
4.5362,-0.144735907728614
4.5363,-0.190468998060143
4.5364,-0.159228788296439
4.5365,-0.134751923427131
4.5366,-0.153431636050626
4.5367,-0.119614915106687
4.5368,-0.133463667393487
4.5369,-0.0964263069268509
4.537,-0.126378259229714
4.5371,-0.128954771285117
4.5372,-0.0732376991106315
4.5373,-0.0149441170825468
4.5374,-0.0429636838738365
4.5375,-0.0400651079769481
4.5376,-0.0468284517443868
4.5377,-0.0101131573378168
4.5378,-0.0513373476050468
4.5379,-0.105122034950902
4.538,-0.130887155329778
4.5381,-0.146024163772807
4.5382,-0.234269705831517
4.5383,-0.289986784959699
4.5384,-0.277748351161322
4.5385,-0.287088208521655
4.5386,-0.239744794413724
4.5387,-0.229760809370879
4.5388,-0.19465583035398
4.5389,-0.0973924989269841
4.539,-0.0365224041099404
4.5391,-0.0355562121475349
4.5392,-0.0110793492856829
4.5393,-0.0039939416804443
4.5394,-0.00270568575530039
4.5395,0.050112806393098
4.5396,0.104219552984476
4.5397,0.0900487385339915
4.5398,0.0420612070757169
4.5399,0.033043415800537
4.54,0.0652498130214009
4.5401,0.0948796980159587
4.5402,0.0942355700856453
4.5403,0.120644815077216
4.5404,0.128696414100138
4.5405,0.0671821968381462
4.5406,-0.0258942925544027
4.5407,-0.0999690109304336
4.5408,-0.111885379005447
4.5409,-0.129276835292375
4.541,-0.118326659086911
4.5411,-0.184671845675999
4.5412,-0.186604229801128
4.5413,-0.163093556474286
4.5414,-0.201097110833114
4.5415,-0.194977894377155
4.5416,-0.221709208590256
4.5417,-0.22492984889608
4.5418,-0.265831981537875
4.5419,-0.282257247808321
4.542,-0.195299958400413
4.5421,-0.144735907728614
4.5422,-0.0816113630032325
4.5423,-0.0561683074698331
4.5424,-0.0597110113800067
4.5425,0.00502384977587022
4.5426,0.0478583585875657
4.5427,0.0636394931727195
4.5428,0.0736234762142243
4.5429,0.0787764997007623
4.543,0.0968120818057691
4.5431,0.0404508872082489
4.5432,0.0375523114434215
4.5433,0.0372302474692821
4.5434,0.0465701026975297
4.5435,0.0485024865322669
4.5436,0.00921068150795264
4.5437,-0.0265384205255402
4.5438,-0.0983586909277497
4.5439,-0.0867643869600664
4.544,-0.0677626112055138
4.5441,-0.0919174109345592
4.5442,-0.0777465950471003
4.5443,-0.0703391231584507
4.5444,-0.124767939197486
4.5445,-0.178874693318021
4.5446,-0.17404373303953
4.5447,-0.156974340197866
4.5448,-0.129598899299707
4.5449,-0.138616691535249
4.545,-0.0961042429269468
4.5451,-0.0339458922114482
4.5452,-0.0162323730167623
4.5453,-0.0320135082902104
4.5454,-0.0442519398296639
4.5455,-0.0851540669716663
4.5456,-0.0925615389326203
4.5457,-0.089985026942045
4.5458,-0.120581107122285
4.5459,-0.129920963307113
4.546,-0.16116117238396
4.5461,-0.162127364428772
4.5462,-0.150855123949398
4.5463,-0.136040179461971
4.5464,-0.0951380509276551
4.5465,-0.108664738975535
4.5466,-0.0970704349268695
4.5467,-0.0867643869600664
4.5468,-0.114139827030668
4.5469,-0.170501028846676
4.547,-0.095460114927349
4.5471,-0.068406739193347
4.5472,-0.130565091322149
4.5473,-0.159872916325302
4.5474,-0.138294627525826
4.5475,-0.0616433953343592
4.5476,-0.0394209800005598
4.5477,-0.0838658109821847
4.5478,-0.0510152836145803
4.5479,-0.066796419224264
4.548,-0.135396051444401
4.5481,-0.133141603385263
4.5482,-0.0870864509579532
4.5483,-0.0249281005981588
4.5484,-0.00946902937287154
4.5485,0.00824448957064439
4.5486,-0.0564903714613397
4.5487,-0.0548800515044589
4.5488,-0.0262163565399406
4.5489,-0.029759060384938
4.549,-0.0123676052170096
4.5491,-0.00012917390783574
4.5492,-0.0310473163304344
4.5493,0.0530113821392889
4.5494,0.0700807725598606
4.5495,0.0378743754175068
4.5496,0.0291786480981276
4.5497,0.0301448400244703
4.5498,0.0604188534715352
4.5499,0.0378743754175068
4.55,-0.0477946437134657
4.5501,-0.11124125099889
4.5502,-0.122835555161238
4.5503,-0.189180741972505
4.5504,-0.242643370732164
4.5505,-0.235880026000144
4.5506,-0.221065080530115
4.5507,-0.195299958400413
4.5508,-0.19787647058943
4.5509,-0.31575190918929
4.551,-0.297394258113594
4.5511,-0.312209204571536
4.5512,-0.391759029340957
4.5513,-0.360196749948541
4.5514,-0.373723440994791
4.5515,-0.345059738752573
4.5516,-0.34312735436057
4.5517,-0.340550841843487
4.5518,-0.287410272569954
4.5519,-0.272595326443957
4.552,-0.305445859424433
4.5521,-0.310276820239483
4.5522,-0.212047287723756
4.5523,-0.204317751085071
4.5524,-0.221387144560143
4.5525,-0.228794617274372
4.5526,-0.225251912927133
4.5527,-0.219776824410854
4.5528,-0.208826647451784
4.5529,-0.199808854734649
4.553,-0.166958324663388
4.5531,-0.110597122992621
4.5532,-0.148600675864849
4.5533,-0.175654053130367
4.5534,-0.143125587675081
4.5535,-0.111885379005447
4.5536,-0.119614915106687
4.5537,-0.129920963307113
4.5538,-0.0783907230391082
4.5539,-0.0410312999420059
4.554,-0.0448960678079606
4.5541,-0.0333017642374522
4.5542,0.0256359443639589
4.5543,0.0439935909149141
4.5544,0.0832853952411737
4.5545,0.109694640361764
4.5546,0.112915279989329
4.5547,0.162835193665614
4.5548,0.135137693299068
4.5549,0.147376123730693
4.555,0.0336875437501729
4.5551,0.0581644056776576
4.5552,0.0768441158947911
4.5553,0.022415304599802
4.5554,-0.0390989160124606
4.5555,-0.0758142110727046
4.5556,-0.119936979111814
4.5557,-0.19111312610445
4.5558,-0.199164726685913
4.5559,-0.223963656803436
4.556,-0.240388922483876
4.5561,-0.285477888281556
4.5562,-0.214623799947383
4.5563,-0.189502805994292
4.5564,-0.129598899299707
4.5565,-0.097714562927169
4.5566,-0.0352341481601921
4.5567,-0.0284708044404356
4.5568,-0.029759060384938
4.5569,-0.0223515887175467
4.557,-0.0133337971661347
4.5571,-0.0142999891158012
4.5572,0.0069562336534275
4.5573,-0.0429636838738365
4.5574,0.00309146589622716
4.5575,-0.0130117331830329
4.5576,-0.0155882450495337
4.5577,-0.0210633327787114
4.5578,-0.000451237888563463
4.5579,0.0159740250546954
4.558,-0.0133337971661347
4.5581,-0.0333017642374522
4.5582,-0.0935277309302347
4.5583,-0.11510601904256
4.5584,-0.0893408989450955
4.5585,-0.103189650941099
4.5586,-0.150210995924858
4.5587,-0.0577786274280203
4.5588,-0.0445740038187803
4.5589,-0.127344451249936
4.559,-0.155364020129781
4.5591,-0.16116117238396
4.5592,-0.0961042429269468
4.5593,-0.119292851101634
4.5594,-0.114461891034559
4.5595,-0.0758142110727046
4.5596,0.0111430653810194
4.5597,-0.00431600566187774
4.5598,0.0156519610768481
4.5599,0.0262800723161236
4.56,0.0266021362921228
4.5601,-0.00624838955172004
4.5602,-0.0258942925544027
4.5603,-0.0242839726276373
4.5604,0.0121092573167801
4.5605,-0.0213853967633285
4.5606,-0.010435221320379
4.5607,0.0307889679750908
4.5608,0.0571982137652234
4.5609,0.034009607724909
4.561,0.0491466144767572
4.5611,0.0652498130214009
4.5612,0.0684704527149667
4.5613,0.0230594325530789
4.5614,0.0314330959254919
4.5615,0.102609233165104
4.5616,0.0984224016293211
4.5617,0.0468921666701181
4.5618,0.0600967895011354
4.5619,0.111949088101534
4.562,0.111949088101534
4.5621,0.130950861821707
4.5622,0.0848957150747245
4.5623,0.0794206276356931
4.5624,0.0626733012629003
4.5625,0.010176873444744
4.5626,0.0146857691429662
4.5627,0.0076003616121512
4.5628,-0.0465063877548222
4.5629,-0.0754921470772091
4.563,-0.066796419224264
4.5631,-0.0487608356831232
4.5632,-0.0481167077032872
4.5633,-0.0655081632501961
4.5634,-0.0816113630032325
4.5635,-0.0629316513052462
4.5636,-0.0519814755861741
4.5637,-0.12090317112763
4.5638,-0.147634483829761
4.5639,-0.153753700063626
4.564,-0.140227011583491
4.5641,-0.106088226956763
4.5642,-0.0474725797237085
4.5643,-0.0413533639304854
4.5644,-0.0413533639304854
4.5645,-0.0300811243712188
4.5646,-0.048438771693173
4.5647,-0.0816113630032325
4.5648,-0.0845099389767881
4.5649,-0.12154729913854
4.565,-0.129920963307113
4.5651,-0.128954771285117
4.5652,-0.126700323236381
4.5653,-0.145057971739548
4.5654,-0.17404373303953
4.5655,-0.172755476968291
4.5656,-0.160839108369178
4.5657,-0.178230565279851
4.5658,-0.21816650426369
4.5659,-0.180162949395322
4.566,-0.140871139603315
4.5661,-0.114783955038523
4.5662,-0.110275058989594
4.5663,-0.126056195223121
4.5664,-0.120581107122285
4.5665,-0.189180741972505
4.5666,-0.205928071214164
4.5667,-0.189824870016161
4.5668,-0.140549075593365
4.5669,-0.0867643869600664
4.567,-0.0500490916435685
4.5671,-0.0416754279190284
4.5672,-0.0268604845112015
4.5673,-0.0558462434783917
4.5674,-0.0481167077032872
4.5675,-0.0619654593269819
4.5676,-0.0423195558963052
4.5677,0.0208049847156317
4.5678,0.0140416411867611
4.5679,0.0307889679750908
4.568,0.0877942907720745
4.5681,0.0845736511081112
4.5682,0.0230594325530789
4.5683,-0.01913094887229
4.5684,-0.0577786274280203
4.5685,-0.036200340122409
4.5686,-0.0845099389767881
4.5687,-0.152143379999397
4.5688,-0.158584660267888
4.5689,-0.119936979111814
4.569,-0.127344451249936
4.5691,-0.108342674972938
4.5692,-0.116716339063828
4.5693,-0.0880526429520279
4.5694,-0.110275058989594
4.5695,-0.163415620489614
4.5696,-0.204317751085071
4.5697,-0.232659385665058
4.5698,-0.247796395315842
4.5699,-0.221387144560143
4.57,-0.187892485886167
4.5701,-0.134751923427131
4.5702,-0.168890708762181
4.5703,-0.223319528742101
4.5704,-0.236846218102363
4.5705,-0.280646927575174
4.5706,-0.280002799482562
4.5707,-0.2738835826211
4.5708,-0.311887140515953
4.5709,-0.281935183761507
4.571,-0.246508139167808
4.5711,-0.195622022423753
4.5712,-0.220420952470315
4.5713,-0.196266150470678
4.5714,-0.166314196631087
4.5715,-0.163415620489614
4.5716,-0.164059748520504
4.5717,-0.127344451249936
4.5718,-0.0777465950471003
4.5719,-0.0500490916435685
4.572,-0.00721458149744114
4.5721,-0.0039939416804443
4.5722,-0.0445740038187803
4.5723,-0.121869363144105
4.5724,-0.131531283345259
4.5725,-0.129276835292375
4.5726,-0.128632707277933
4.5727,-0.118970787096654
4.5728,-0.140227011583491
4.5729,-0.154075764076703
4.573,-0.179518821356511
4.5731,-0.151821315986782
4.5732,-0.145057971739548
4.5733,-0.11575014705085
4.5734,-0.057456563436252
4.5735,-0.00334981371775445
4.5736,-0.0609992673493117
4.5737,-0.0394209800005598
4.5738,-0.0407092359535899
4.5739,-0.0912732829367765
4.574,-0.13668430747984
4.5741,-0.17533198911204
4.5742,-0.136040179461971
4.5743,-0.140227011583491
4.5744,-0.208826647451784
4.5745,-0.200452982783716
4.5746,-0.175976117148773
4.5747,-0.163415620489614
4.5748,-0.136362243470868
4.5749,-0.138616691535249
4.575,-0.145057971739548
4.5751,-0.10641029095886
4.5752,-0.18821454990763
4.5753,-0.153109572037704
4.5754,-0.110919186995719
4.5755,-0.122191427149743
4.5756,-0.157296404211716
4.5757,-0.169856900812641
4.5758,-0.169534836795742
4.5759,-0.102867586939714
4.576,-0.0896629629435356
4.5761,-0.139904947573692
4.5762,-0.110275058989594
4.5763,-0.10093520293289
4.5764,-0.138294627525826
4.5765,-0.125734131216602
4.5766,-0.0825775549938011
4.5767,-0.0590668833957488
4.5768,-0.0764583390638988
4.5769,-0.091595346935633
4.577,-0.0800010430203183
4.5771,-0.057456563436252
4.5772,-0.0999690109304336
4.5773,-0.133785731401786
4.5774,-0.118648723091746
4.5775,-0.141193203613341
4.5776,-0.131531283345259
4.5777,-0.122835555161238
4.5778,-0.141515267623442
4.5779,-0.113817763026848
4.578,-0.0690508671814474
4.5781,-0.0671184832179473
4.5782,-0.0555241794870155
4.5783,-0.0706611871528689
4.5784,-0.109952994986638
4.5785,-0.156008148156783
4.5786,-0.103189650941099
4.5787,-0.122513491155454
4.5788,-0.161805300413756
4.5789,-0.0980366269274242
4.579,-0.0973924989269841
4.5791,-0.0928836029317554
4.5792,-0.0609992673493117
4.5793,-0.105122034950902
4.5794,-0.0490828996731379
4.5795,0.00470178579607478
4.5796,-0.031691444303556
4.5797,0.0488245505045384
4.5798,0.0507569343370626
4.5799,0.0356199275977738
4.58,-0.0481167077032872
4.5801,-0.07935691502763
4.5802,-0.0886967709484233
4.5803,-0.10641029095886
4.5804,-0.108986802978203
4.5805,-0.151499251974244
4.5806,-0.126700323236381
4.5807,-0.114461891034559
4.5808,-0.118326659086911
4.5809,-0.0645419712703428
4.581,0.00437972181622136
4.5811,0.0214491126694676
4.5812,-0.0242839726276373
4.5813,0.00631210569447298
4.5814,0.0365861195208413
4.5815,0.00888861752890738
4.5816,-0.0835437469849859
4.5817,-0.089985026942045
4.5818,-0.0542359235221628
4.5819,-0.0130117331830329
4.582,0.0388405673394389
4.5821,0.0710469644661954
4.5822,0.0504348703651065
4.5823,0.0514010622808174
4.5824,0.0150078331209836
4.5825,-0.0184868209039701
4.5826,-0.0258942925544027
4.5827,-0.0304031883575618
4.5828,-0.0555241794870155
4.5829,-0.0249281005981588
4.583,-0.00882490140816502
4.5831,0.00953274548694047
4.5832,0.000837018033996228
4.5833,0.0523672541960571
4.5834,0.0578423417068978
4.5835,0.0559099578812544
4.5836,-0.0246060366128673
4.5837,-0.0864423229622486
4.5838,-0.152143379999397
4.5839,-0.126056195223121
4.584,-0.131531283345259
4.5841,-0.144091779706973
4.5842,-0.180162949395322
4.5843,-0.162449428443865
4.5844,-0.231049065500762
4.5845,-0.248440523390389
4.5846,-0.184671845675999
4.5847,-0.17694230920447
4.5848,-0.208826647451784
4.5849,-0.166636260647198
4.585,-0.0993248829291486
4.5851,-0.064219907277191
4.5852,-0.0696949951698152
4.5853,0.00341352987631287
4.5854,-0.00012917390783574
4.5855,-0.11768253107746
4.5856,-0.145057971739548
4.5857,-0.157296404211716
4.5858,-0.165992132615054
4.5859,-0.192079318171523
4.586,-0.182417397533688
4.5861,-0.173721669021601
4.5862,-0.154719892103087
4.5863,-0.152787508024858
4.5864,-0.147634483829761
4.5865,-0.0906291549392718
4.5866,-0.0996469469297558
4.5867,-0.167602452696004
4.5868,-0.125090003203784
4.5869,-0.0626095873124254
4.587,-0.0803231070167646
4.5871,-0.0816113630032325
4.5872,-0.064219907277191
4.5873,-0.0490828996731379
4.5874,-0.0448960678079606
4.5875,-0.125412067210156
4.5876,-0.14215939564387
4.5877,-0.176620245185825
4.5878,-0.166314196631087
4.5879,-0.215589992032634
4.588,-0.230727001468162
4.5881,-0.190468998060143
4.5882,-0.144091779706973
4.5883,-0.116072211055103
4.5884,-0.14666829179536
4.5885,-0.199808854734649
4.5886,-0.167280388679657
4.5887,-0.219454760381252
4.5888,-0.282901375902227
4.5889,-0.301581090787835
4.589,-0.251017035692117
4.5891,-0.255203868194546
4.5892,-0.287088208521655
4.5893,-0.248440523390389
4.5894,-0.205928071214164
4.5895,-0.184993909696652
4.5896,-0.164381812536066
4.5897,-0.101579330934882
4.5898,-0.0729156351156758
4.5899,-0.126056195223121
4.59,-0.193367574262097
4.5901,-0.172755476968291
4.5902,-0.137006371488887
4.5903,-0.136362243470868
4.5904,-0.195299958400413
4.5905,-0.198198534613427
4.5906,-0.199808854734649
4.5907,-0.165348004583223
4.5908,-0.224285720834232
4.5909,-0.235235897932433
4.591,-0.189824870016161
4.5911,-0.17533198911204
4.5912,-0.190791062082256
4.5913,-0.154719892103087
4.5914,-0.213013479806985
4.5915,-0.23716828213661
4.5916,-0.223641592772726
4.5917,-0.197232342541682
4.5918,-0.159872916325302
4.5919,-0.200130918759141
4.592,-0.244575754948403
4.5921,-0.209792839532496
4.5922,-0.186282165780071
4.5923,-0.183061525573946
4.5924,-0.205283943162277
4.5925,-0.162449428443865
4.5926,-0.20206330290783
4.5927,-0.247152267241649
4.5928,-0.23201525759908
4.5929,-0.25649212435217
4.593,-0.203351559008613
4.5931,-0.210436967586722
4.5932,-0.241999242660786
4.5933,-0.23716828213661
4.5934,-0.165348004583223
4.5935,-0.144735907728614
4.5936,-0.102545522938399
4.5937,0.00309146589622716
4.5938,0.0230594325530789
4.5939,-0.0471505157340155
4.594,-0.151821315986782
4.5941,-0.11575014705085
4.5942,-0.152143379999397
4.5943,-0.17533198911204
4.5944,-0.13410779541016
4.5945,-0.102223458937156
4.5946,-0.124445875191261
4.5947,-0.184027717634936
4.5948,-0.132819539377113
4.5949,-0.129276835292375
4.595,-0.13410779541016
4.5951,-0.200130918759141
4.5952,-0.17694230920447
4.5953,-0.1563302121704
4.5954,-0.198842662661668
4.5955,-0.112851571015823
4.5956,-0.113495699023101
4.5957,-0.0967483709268251
4.5958,-0.0970704349268695
4.5959,-0.118648723091746
4.596,-0.131531283345259
4.5961,-0.141193203613341
4.5962,-0.123801747179032
4.5963,-0.159550852310831
4.5964,-0.136362243470868
4.5965,-0.14666829179536
4.5966,-0.145380035750558
4.5967,-0.152465444012089
4.5968,-0.152465444012089
4.5969,-0.148922739876698
4.597,-0.103511714942555
4.5971,-0.0606772033568867
4.5972,-0.068406739193347
4.5973,-0.0117234772512263
4.5974,-0.0210633327787114
4.5975,-0.00496013362492185
4.5976,-0.0983586909277497
4.5977,-0.138616691535249
4.5978,-0.116716339063828
4.5979,-0.119292851101634
4.598,-0.105766162954738
4.5981,-0.105444098952784
4.5982,-0.0432857478626977
4.5983,-0.0719494431312126
4.5984,-0.0941718589289932
4.5985,-0.0648640352635609
4.5986,-0.041997491907635
4.5987,-0.00657045353356773
4.5988,0.00405765783630993
4.5989,0.0504348703651065
4.599,0.0620291733227658
4.5991,0.0652498130214009
4.5992,0.0929473142244517
4.5993,0.100998913344578
4.5994,-0.00624838955172004
4.5995,-0.0432857478626977
4.5996,0.0137195772085733
4.5997,0.025958008340069
4.5998,0.00502384977587022
4.5999,0.0459259747521942
4.6,0.0857547445037308
4.6001,0.0461408762418882
4.6002,0.024240525968574
4.6003,0.0142565426710145
4.6004,0.0960607914085248
4.6005,0.0519380277432587
4.6006,-0.0366295666227508
4.6007,-0.0359854386474992
4.6008,0.00556081523831145
4.6009,-0.0472576782510245
4.601,-0.01376302365336
4.6011,0.031325933437532
4.6012,0.102502070699474
4.6013,0.0654647145142074
4.6014,0.100247622949763
4.6015,0.0770590173893981
4.6016,0.0516159637714075
4.6017,0.0142565426710145
4.6018,-0.0398502065027961
4.6019,0.0335803812629783
4.602,0.0590234351108071
4.6021,0.0416319806178381
4.6022,0.0287494216337308
4.6023,0.0683632902390984
4.6024,0.122147972423849
4.6025,0.0970269833033594
4.6026,0.0770590173893981
4.6027,0.0590234351108071
4.6028,0.0345465731873503
4.6029,0.0593454990814639
4.603,0.0831782327698552
4.6031,0.0789914011956646
4.6032,0.116350821112734
4.6033,0.0741604416766655
4.6034,0.0371230849832825
4.6035,0.000407791554605493
4.6036,-0.00216872029285916
4.6037,-0.0140850876367026
4.6038,0.0393775328018801
4.6039,0.0416319806178381
4.604,0.0152227346054075
4.6041,0.048395324050007
4.6042,0.0206978222240128
4.6043,-0.0385619505500193
4.6044,-0.0662594537618227
4.6045,-0.0881598054859821
4.6046,-0.108127773513094
4.6047,-0.0604623018868704
4.6048,-0.0276117749920237
4.6049,-0.0179498554415288
4.605,-0.00442316816248061
4.6051,-0.00828793594572379
4.6052,-0.0994320454679924
4.6053,-0.105229197492297
4.6054,-0.077209629584659
4.6055,-0.131316381890669
4.6056,-0.208611746016163
4.6057,-0.254666902732105
4.6058,-0.238563700881481
4.6059,-0.253378646575909
4.606,-0.220850179097702
4.6061,-0.207645553935954
4.6062,-0.154504990653954
4.6063,-0.181236304031312
4.6064,-0.15901388684839
4.6065,-0.149029902438184
4.6066,-0.115535245592662
4.6067,-0.159658014877408
4.6068,-0.148385774414257
4.6069,-0.093634893466552
4.607,-0.0810743975407913
4.6071,-0.103940941484908
4.6072,-0.141300366171177
4.6073,-0.165777231168645
4.6074,-0.133248765939345
4.6075,-0.102008557475958
4.6076,-0.10007617346956
4.6077,-0.143232750233825
4.6078,-0.153860862627415
4.6079,-0.18574520031763
4.608,-0.139045918101527
4.6081,-0.108127773513094
4.6082,-0.0820405895313598
4.6083,-0.0559534059988985
4.6084,-0.0298662228951205
4.6085,0.000407791554605493
4.6086,-0.059496109909793
4.6087,-0.162878655027172
4.6088,-0.176405343742029
4.6089,-0.198305697199227
4.609,-0.248225621965354
4.6091,-0.34130213263879
4.6092,-0.35740533599594
4.6093,-0.328741634193425
4.6094,-0.317147328068725
4.6095,-0.378339500740694
4.6096,-0.39089999979802
4.6097,-0.349353734285917
4.6098,-0.321656224879997
4.6099,-0.302976509641981
4.61,-0.256277222929358
4.6101,-0.199271889272208
4.6102,-0.181558368051239
4.6103,-0.173828831595097
4.6104,-0.173828831595097
4.6105,-0.261430247575618
4.6106,-0.280109962112733
4.6107,-0.257243415048783
4.6108,-0.226647331652807
4.6109,-0.234376868436266
4.611,-0.16159039896633
4.6111,-0.105551261494322
4.6112,-0.104263005486649
4.6113,-0.0810743975407913
4.6114,-0.077531693580629
4.6115,-0.059496109909793
4.6116,-0.0836509095170108
4.6117,-0.109093965521314
4.6118,-0.13550321399953
4.6119,-0.136791470035568
4.612,-0.129383997844672
4.6121,-0.153538798614261
4.6122,-0.157081502763201
4.6123,-0.171252319453254
4.6124,-0.15901388684839
4.6125,-0.182524560111504
4.6126,-0.169964063384235
4.6127,-0.156759438749274
4.6128,-0.225681139558364
4.6129,-0.186067264338687
4.613,-0.122298589698797
4.6131,-0.0884818694842836
4.6132,-0.0652932617811721
4.6133,-0.0968555334645429
4.6134,-0.0987879174667074
4.6135,-0.0517665741143937
4.6136,-0.0968555334645429
4.6137,-0.0501562541617372
4.6138,0.0219860781319089
4.6139,-0.00474523214409136
4.614,-0.0875156774895867
4.6141,-0.063038813828645
4.6142,-0.0781758215727729
4.6143,-0.0981437894657043
4.6144,-0.195085056961311
4.6145,-0.217951602830512
4.6146,-0.167709615266494
4.6147,-0.0875156774895867
4.6148,-0.0359854386474992
4.6149,-0.0324427347881068
4.615,-0.00313491223662865
4.6151,0.00845939105386783
4.6152,-0.0276117749920237
4.6153,-0.0353413106724993
4.6154,-0.0301882868815257
4.6155,-0.01376302365336
4.6156,-0.0543430860420177
4.6157,-0.0739889896286868
4.6158,-0.0440370383563391
4.6159,0.00523875125851601
4.616,0.0107138389071852
4.6161,-0.00635555205303351
4.6162,-0.00925412789287307
4.6163,0.012968286757694
4.6164,0.00717113513642035
4.6165,-0.0388840145381185
4.6166,-0.093634893466552
4.6167,-0.0443591023455194
4.6168,-0.0720566056583463
4.6169,-0.0733448616383036
4.617,-0.184779008254944
4.6171,-0.236309252639922
4.6172,-0.214086834484942
4.6173,-0.268193592458846
4.6174,-0.300722061272961
4.6175,-0.294280780244163
4.6176,-0.233088612302232
4.6177,-0.185423136296654
4.6178,-0.170930255435881
4.6179,-0.187677584445189
4.618,-0.153860862627415
4.6181,-0.135181149990708
4.6182,-0.0878377414877498
4.6183,-0.0462914862819456
4.6184,0.0190875023378797
4.6185,0.0171551184726614
4.6186,-0.00603348807112649
4.6187,-0.0195601753627852
4.6188,-0.0559534059988985
4.6189,-0.0907363174743352
4.619,-0.143232750233825
4.6191,-0.117467629619708
4.6192,-0.0462914862819456
4.6193,-0.0578857899493122
4.6194,-0.0678697737309058
4.6195,-0.0784978855689468
4.6196,-0.0443591023455194
4.6197,-0.0440370383563391
4.6198,-0.063038813828645
4.6199,-0.0575637259574129
4.62,-0.066903581749256
4.6201,-0.0495121261811273
4.6202,-0.0617505578572294
4.6203,-0.0282559029640269
4.6204,-0.00216872029285916
4.6205,0.0190875023378797
4.6206,-0.00893206391043031
4.6207,0.0142565426710145
4.6208,0.00942558299134861
4.6209,-0.0115085757716467
4.621,-0.093634893466552
4.6211,-0.121654461687302
4.6212,-0.0974996614649829
4.6213,-0.0788199495651888
4.6214,-0.0997541094687407
4.6215,-0.0662594537618227
4.6216,-0.0353413106724993
4.6217,0.0168330544949273
4.6218,0.05741311525675
4.6219,0.0548366034875681
4.622,0.0844664886371806
4.6221,0.128911315602183
4.6222,0.0777031453250172
4.6223,0.0931622157214761
4.6224,0.139539426272729
4.6225,0.109587477898149
4.6226,0.0615999468746222
4.6227,-0.00249078427405673
4.6228,-0.0366295666227508
4.6229,-0.0681918377249226
4.623,-0.0672256457430725
4.6231,-0.00667761603499991
4.6232,0.0187654383604843
4.6233,0.00620494319772855
4.6234,-0.0131188956868555
4.6235,-0.00957619187537554
4.6236,-0.00860999992804723
4.6237,0.0293935495850112
4.6238,-0.0433929103781701
4.6239,-0.0633608778216643
4.624,-0.0421046544225978
4.6241,-0.0946010854652139
4.6242,-0.0797861415543234
4.6243,0.00266223941806208
4.6244,-0.0607843658793612
4.6245,-0.120044141659844
4.6246,-0.145487198310366
4.6247,-0.0781758215727729
4.6248,-0.058207853941277
4.6249,-0.0456473583028806
4.625,0.0290714856093986
4.6251,0.0229522700622432
4.6252,0.022630206085521
4.6253,-0.0189160473941
4.6254,-0.059496109909793
4.6255,-0.0205263673162702
4.6256,0.0168330544949273
4.6257,-0.0192381113784121
4.6258,-0.0549872140245743
4.6259,-0.0723786696532346
4.626,-0.045003230324072
4.6261,-0.0485459342106966
4.6262,-0.0855832935020585
4.6263,-0.0585299179333075
4.6264,-0.0946010854652139
4.6265,-0.131638445898596
4.6266,-0.170608191418586
4.6267,-0.181880432071247
4.6268,-0.185101072275759
4.6269,-0.187999648466732
4.627,-0.172540575523541
4.6271,-0.162556591011845
4.6272,-0.112314605553382
4.6273,-0.116179373601387
4.6274,-0.14226655820216
4.6275,-0.0968555334645429
4.6276,-0.0330868627619777
4.6277,-0.066581517755506
4.6278,-0.0662594537618227
4.6279,-0.102974749480114
4.628,-0.132282573914672
4.6281,-0.177371535798444
4.6282,-0.21118825823374
4.6283,-0.160302142906737
4.6284,-0.16159039896633
4.6285,-0.157403566777205
4.6286,-0.21344270642853
4.6287,-0.234698932469991
4.6288,-0.24178434123399
4.6289,-0.237919572812028
4.629,-0.202492529520852
4.6291,-0.222782563279659
4.6292,-0.193796800868445
4.6293,-0.216663346713968
4.6294,-0.204746977699836
4.6295,-0.115535245592662
4.6296,-0.0852612295043785
4.6297,-0.0794640775578771
4.6298,-0.048223870220682
4.6299,-0.0182719194256584
4.63,-0.000880464368657127
4.6301,-0.01215270373755
4.6302,-0.0508003821426056
4.6303,-0.0214925592703049
4.6304,-0.0852612295043785
4.6305,-0.142910686223194
4.6306,-0.14709751836732
4.6307,-0.103296813481641
4.6308,-0.0949231494649077
4.6309,-0.0710904136740847
4.631,-0.0994320454679924
4.6311,-0.092668701468519
4.6312,-0.0974996614649829
4.6313,-0.153860862627415
4.6314,-0.198949825247799
4.6315,-0.215697154627449
4.6316,-0.235987188605762
4.6317,-0.262718503740779
4.6318,-0.29814554885691
4.6319,-0.306519214231286
4.632,-0.297501420753842
4.6321,-0.259175799290052
4.6322,-0.15482705466734
4.6323,-0.139367982111251
4.6324,-0.154504990653954
4.6325,-0.123586845722668
4.6326,-0.145809262321604
4.6327,-0.227935587779934
4.6328,-0.221816371188297
4.6329,-0.246615301779208
4.633,-0.265617080117672
4.6331,-0.259819927371193
4.6332,-0.284296794723726
4.6333,-0.288161563301639
4.6334,-0.251446262344287
4.6335,-0.268837720545047
4.6336,-0.254666902732105
4.6337,-0.160946270936378
4.6338,-0.0894480614796037
4.6339,0.0161889265392894
4.634,0.0245625899450173
4.6341,0.0699736100844949
4.6342,0.0806017210328692
4.6343,0.0702956740534234
4.6344,0.0796355291306934
4.6345,0.108621286008725
4.6346,0.0835002967367594
4.6347,0.0870430003695083
4.6348,0.0587013711400989
4.6349,-0.037595758586101
4.635,-0.0701242216904277
4.6351,-0.133248765939345
4.6352,-0.1693199353502
4.6353,-0.255311030810738
4.6354,-0.261752311616773
4.6355,-0.29138220379349
4.6356,-0.325520993590548
4.6357,-0.276889321653357
4.6358,-0.24532704563188
4.6359,-0.217951602830512
4.636,-0.176405343742029
4.6361,-0.179303919913435
4.6362,-0.199916017321275
4.6363,-0.129061933837266
4.6364,-0.118111757629305
4.6365,-0.0810743975407913
4.6366,-0.0385619505500193
4.6367,-0.00184665631172044
4.6368,-0.0540210220508371
4.6369,-0.0736669256334615
4.637,-0.124553037741343
4.6371,-0.153538798614261
4.6372,-0.137435598054038
4.6373,-0.14645339034431
4.6374,-0.148707838426182
4.6375,-0.171896447488239
4.6376,-0.136147342017399
4.6377,-0.116501437605858
4.6378,-0.10458506948846
4.6379,-0.00538936010749041
4.638,0.05741311525675
4.6381,0.0789914011956646
4.6382,0.104434454483135
4.6383,0.167881054508644
4.6384,0.172389949881704
4.6385,0.126012739956674
4.6386,0.0847885526038907
4.6387,0.131809891244201
4.6388,0.120215588655069
4.6389,0.0493615159669796
4.639,-0.00989825585793779
4.6391,-0.0688359657131566
4.6392,-0.086549485495512
4.6393,-0.103296813481641
4.6394,-0.0894480614796037
4.6395,-0.0256793910774994
4.6396,-0.0408163984680442
4.6397,-0.0469356142612673
4.6398,-0.00474523214409136
4.6399,0.0216640141550189
4.64,0.0651426505445219
4.6401,0.0409878526706901
4.6402,0.0854326805371658
4.6403,0.0287494216337308
4.6404,-0.0540210220508371
4.6405,-0.0717345416635252
4.6406,-0.0163395355217917
4.6407,0.000729855535274654
4.6408,0.00652700717735029
4.6409,0.0174771824503389
4.641,0.0306818054869115
4.6411,0.0625661387852071
4.6412,0.0957387274434859
4.6413,0.0126462227792213
4.6414,-0.0305103508679931
4.6415,-0.00635555205303351
4.6416,0.0132903507361096
4.6417,0.0255287818740137
4.6418,0.00845939105386783
4.6419,0.0416319806178381
4.642,0.0825341048359011
4.6421,0.0422761085647717
4.6422,0.0413099166442909
4.6423,0.0825341048359011
4.6424,0.130199571443509
4.6425,0.126656867878201
4.6426,0.120537652616643
4.6427,0.129877507483242
4.6428,0.113130181489217
4.6429,0.0702956740534234
4.643,0.0187654383604843
4.6431,0.0152227346054075
4.6432,-0.0356633746599678
4.6433,-0.0346971826977508
4.6434,-0.0108644478059834
4.6435,0.0677191623005874
4.6436,0.0490394519947081
4.6437,-0.0153733435706766
4.6438,-0.0466135502715743
4.6439,0.00330636737852451
4.644,-0.0301882868815257
4.6441,-0.0794640775578771
4.6442,-0.13421495796469
4.6443,-0.148063710402408
4.6444,-0.184456944234211
4.6445,-0.122620653704655
4.6446,-0.0185939834098488
4.6447,-0.0195601753627852
4.6448,-0.037595758586101
4.6449,-0.0466135502715743
4.645,-0.0540210220508371
4.6451,0.0103917749283121
4.6452,0.0393775328018801
4.6453,0.0941284076175843
4.6454,0.127945123720736
4.6455,0.0500056439113646
4.6456,0.00749319911586874
4.6457,-0.0140850876367026
4.6458,-0.0543430860420177
4.6459,-0.0369516306104712
4.646,-0.0218146232551054
4.6461,-0.0688359657131566
4.6462,-0.0337309907360989
4.6463,-0.00120252834961947
4.6464,-0.00152459233064056
4.6465,-0.0366295666227508
4.6466,-0.0453252943134442
4.6467,-0.0871936134914927
4.6468,-0.0862274214976252
4.6469,-0.0859053574998074
4.647,-0.0868715494934678
4.6471,-0.0675477097369558
4.6472,-0.107161581505518
4.6473,-0.16835374329974
4.6474,-0.140012110130924
4.6475,-0.0578857899493122
4.6476,-0.117145565615019
4.6477,-0.12551922976068
4.6478,-0.0987879174667074
4.6479,-0.0987879174667074
4.648,-0.171252319453254
4.6481,-0.201204273420401
4.6482,-0.239851957021435
4.6483,-0.215375090598779
4.6484,-0.243716725449702
4.6485,-0.22632526762124
4.6486,-0.261430247575618
4.6487,-0.28172028234588
4.6488,-0.294924908345345
4.6489,-0.328741634193425
4.649,-0.278821705927877
4.6491,-0.308129534502968
4.6492,-0.321656224879997
4.6493,-0.283652666628709
4.6494,-0.248225621965354
4.6495,-0.237275444742924
4.6496,-0.210544130178843
4.6497,-0.198305697199227
4.6498,-0.165133103136658
4.6499,-0.183168688152084
4.65,-0.194762992937972
4.6501,-0.213764770456694
4.6502,-0.248547686002849
4.6503,-0.299111741012219
4.6504,-0.318435584298577
4.6505,-0.256921351008885
4.6506,-0.275601065472183
4.6507,-0.29138220379349
4.6508,-0.303620637748271
4.6509,-0.285907114962895
4.651,-0.317469392126043
4.6511,-0.361592168910209
4.6512,-0.377373308512104
4.6513,-0.350319926487787
4.6514,-0.406037011696177
4.6515,-0.381238077432091
4.6516,-0.368999642570087
4.6517,-0.323266545174353
4.6518,-0.381238077432091
4.6519,-0.366101065914107
4.652,-0.285585050914876
4.6521,-0.288161563301639
4.6522,-0.310061918832144
4.6523,-0.254988966771377
4.6524,-0.225681139558364
4.6525,-0.25015800619165
4.6526,-0.234698932469991
4.6527,-0.273024553114236
4.6528,-0.239529892986315
4.6529,-0.230834164071007
4.653,-0.265617080117672
4.6531,-0.267227400330225
4.6532,-0.277533449744496
4.6533,-0.352896439030543
4.6534,-0.333894659178461
4.6535,-0.272702489069905
4.6536,-0.263362631823901
4.6537,-0.228579715844014
4.6538,-0.141300366171177
4.6539,-0.0556313420073918
4.654,-0.0672256457430725
4.6541,-0.0833288455197434
4.6542,-0.0733448616383036
4.6543,-0.0462914862819456
4.6544,-0.0131188956868555
4.6545,-0.0366295666227508
4.6546,-0.0462914862819456
4.6547,-0.0636829418147498
4.6548,-0.0839729735143469
4.6549,-0.109416029524197
4.655,-0.129706061852153
4.6551,-0.126807485787495
4.6552,-0.10007617346956
4.6553,-0.117145565615019
4.6554,-0.0817185255344352
4.6555,-0.0755993096058266
4.6556,-0.0646491337944041
4.6557,-0.0591740459175655
4.6558,-0.10458506948846
4.6559,-0.0656153257746558
4.656,-0.139045918101527
4.6561,-0.211510322261315
4.6562,-0.156115310721653
4.6563,-0.115857309596988
4.6564,-0.0997541094687407
4.6565,-0.122298589698797
4.6566,-0.0678697737309058
4.6567,-0.0388840145381185
4.6568,0.00974764697039387
4.6569,0.0416319806178381
4.657,0.0748045696131752
4.6571,0.0799575930981343
4.6572,0.0393775328018801
4.6573,-0.00957619187537554
4.6574,0.059989627022623
4.6575,0.0558027954014003
4.6576,0.0116800308434607
4.6577,-0.0891259974810943
4.6578,-0.117467629619708
4.6579,-0.0495121261811273
4.658,-0.0327647987750109
4.6581,-0.0672256457430725
4.6582,-0.0343751187104708
4.6583,-0.0069996800170257
4.6584,-0.0791420135614989
4.6585,-0.0614284938645407
4.6586,-0.0163395355217917
4.6587,0.0219860781319089
4.6588,0.0339024452378235
4.6589,-0.0678697737309058
4.659,-0.0862274214976252
4.6591,-0.119722077654572
4.6592,-0.128739869829934
4.6593,-0.0707683496794653
4.6594,-0.00249078427405673
4.6595,0.00620494319772855
4.6596,0.0155447985834248
4.6597,-0.0115085757716467
4.6598,-0.0356633746599678
4.6599,-0.0511224461331369
4.66,-0.0900921894768306
4.6601,-0.121332397681664
4.6602,-0.107161581505518
4.6603,-0.0784978855689468
4.6604,-0.126807485787495
4.6605,-0.165133103136658
4.6606,-0.111992541549851
4.6607,-0.0849391655067674
4.6608,-0.0453252943134442
4.6609,-0.0134409596700776
4.661,0.0261729098264002
4.6611,0.0806017210328692
4.6612,0.120537652616643
4.6613,0.118283204884701
4.6614,0.0757707615175676
4.6615,0.0538704115732678
4.6616,0.0184433743830326
4.6617,-0.00667761603499991
4.6618,-0.0295441589087776
4.6619,-0.0533768940686712
4.662,-0.0530548300776858
4.6621,-0.033408926749007
4.6622,-0.0520886381051194
4.6623,-0.0372736945982545
4.6624,-0.0227808152098747
4.6625,0.045174684323328
4.6626,0.045174684323328
4.6627,0.0435643644579969
4.6628,-0.0221366872399672
4.6629,-0.00893206391043031
4.663,0.00910351901224587
4.6631,-0.0688359657131566
4.6632,-0.0755993096058266
4.6633,-0.0640050058079016
4.6634,-0.0421046544225978
4.6635,-0.0743110536239796
4.6636,-0.114246989576082
4.6637,-0.0379178225740106
4.6638,0.0712618659599084
4.6639,0.0751266335813555
4.664,0.0390554688279567
4.6641,0.0487173880223839
4.6642,0.0310038694622492
4.6643,0.0245625899450173
4.6644,0.00588287921804895
4.6645,0.0319700613879331
4.6646,0.0368010210089809
4.6647,0.05741311525675
4.6648,0.0194095663152188
4.6649,0.0161889265392894
4.665,-0.0076438079812557
4.6651,-0.0369516306104712
4.6652,0.00845939105386783
4.6653,0.0100697109493817
4.6654,0.0103917749283121
4.6655,-0.0198822393472192
4.6656,-0.0179498554415288
4.6657,-0.0237470071651961
4.6658,-0.0710904136740847
4.6659,-0.0881598054859821
4.666,-0.0897701254781824
4.6661,-0.069158029707374
4.6662,-0.0871936134914927
4.6663,-0.146131326332919
4.6664,-0.154182926640646
4.6665,-0.119400013649372
4.6666,-0.0949231494649077
4.6667,-0.0875156774895867
4.6668,-0.066581517755506
4.6669,-0.121332397681664
4.667,-0.086549485495512
4.6671,-0.0823626535283529
4.6672,-0.0556313420073918
4.6673,-0.0424267184113953
4.6674,-0.00377904019943651
4.6675,-0.0704462856849129
4.6676,-0.0784978855689468
4.6677,-0.0588519819254037
4.6678,-0.0414605264451938
4.6679,-0.0688359657131566
4.668,-0.0852612295043785
4.6681,-0.112314605553382
4.6682,-0.108127773513094
4.6683,-0.141300366171177
4.6684,-0.151284350524341
4.6685,-0.15482705466734
4.6686,-0.121010333676099
4.6687,-0.130350189867336
4.6688,-0.200882209395495
4.6689,-0.214730962541691
4.669,-0.208611746016163
4.6691,-0.255311030810738
4.6692,-0.245004981595268
4.6693,-0.218595730889293
4.6694,-0.191220288686643
4.6695,-0.167709615266494
4.6696,-0.187355520423726
4.6697,-0.167709615266494
4.6698,-0.207967617962607
4.6699,-0.209900002124281
4.67,-0.121332397681664
4.6701,-0.101042365472441
4.6702,-0.111026349539692
4.6703,-0.118755885639193
4.6704,-0.165455167152612
4.6705,-0.20184840147046
4.6706,-0.274634873337266
4.6707,-0.299755869116232
4.6708,-0.24758149389063
4.6709,-0.237275444742924
4.671,-0.212798578372455
4.6711,-0.223748755371791
4.6712,-0.13421495796469
4.6713,-0.128739869829934
4.6714,-0.125841293767273
4.6715,-0.0543430860420177
4.6716,0.00942558299134861
4.6717,-0.045969422292381
4.6718,-0.121654461687302
4.6719,-0.123586845722668
4.672,-0.154504990653954
4.6721,-0.15482705466734
4.6722,-0.104907133490343
4.6723,-0.0839729735143469
4.6724,-0.091380445472118
4.6725,-0.119722077654572
4.6726,-0.0797861415543234
4.6727,-0.148385774414257
4.6728,-0.195407120984733
4.6729,-0.197661569150986
4.673,-0.206679361856497
4.6731,-0.247903557927948
4.6732,-0.235987188605762
4.6733,-0.245004981595268
4.6734,-0.288161563301639
4.6735,-0.296535228599949
4.6736,-0.22632526762124
4.6737,-0.164166911089266
4.6738,-0.128095741815491
4.6739,-0.0952452134646716
4.674,-0.0952452134646716
4.6741,-0.0810743975407913
4.6742,-0.0743110536239796
4.6743,-0.0324427347881068
4.6744,-0.00538936010749041
4.6745,0.0310038694622492
4.6746,0.00620494319772855
4.6747,0.0284273576580079
4.6748,0.0149006706273333
4.6749,-0.00635555205303351
4.675,-0.0147292156035688
4.6751,-0.0282559029640269
4.6752,-0.0421046544225978
4.6753,-0.0823626535283529
4.6754,-0.0826847175254145
4.6755,-0.0784978855689468
4.6756,-0.00313491223662865
4.6757,-0.0272897110061151
4.6758,-0.0179498554415288
4.6759,0.0281052936822298
4.676,0.00362843135866839
4.6761,-0.0337309907360989
4.6762,-0.0923466374693142
4.6763,-0.147741646390636
4.6764,-0.156437374735425
4.6765,-0.111026349539692
4.6766,-0.0614284938645407
4.6767,-0.0202043033317142
4.6768,-0.0153733435706766
4.6769,-0.0108644478059834
4.677,-0.0327647987750109
4.6771,-0.0601402378944454
4.6772,-0.0520886381051194
4.6773,-0.0636829418147498
4.6774,-0.0508003821426056
4.6775,0.0171551184726614
4.6776,0.0619220108448683
4.6777,0.0132903507361096
4.6778,-0.0243911351357176
4.6779,-0.0411384624565872
4.678,-0.0269676470202683
4.6781,-0.0768875655887569
4.6782,-0.066903581749256
4.6783,-0.0540210220508371
4.6784,-0.0147292156035688
4.6785,-0.0353413106724993
4.6786,-0.0469356142612673
4.6787,-0.0308324148545228
4.6788,-0.0076438079812557
4.6789,-0.0385619505500193
4.679,-0.0446811663347637
4.6791,-0.0231028791949204
4.6792,-0.0308324148545228
4.6793,-0.0591740459175655
4.6794,-0.0884818694842836
4.6795,-0.0904142534755482
4.6796,-0.114891117584227
4.6797,-0.236953380708503
4.6798,-0.249513878115863
4.6799,-0.220206051037731
4.68,-0.179303919913435
4.6801,-0.157725630791287
4.6802,-0.135181149990708
4.6803,-0.0984658534661706
4.6804,-0.149351966450262
4.6805,-0.163522783058062
4.6806,-0.0830067815225447
4.6807,-0.0871936134914927
4.6808,-0.11778969362447
4.6809,-0.0875156774895867
4.681,-0.0562754699904706
4.6811,-0.0108644478059834
4.6812,0.0293935495850112
4.6813,0.0287494216337308
4.6814,0.00813732707459244
4.6815,0.0403437247233274
4.6816,0.0200536942697282
4.6817,0.0190875023378797
4.6818,0.0603116909931255
4.6819,-0.0807523335440719
4.682,-0.0353413106724993
4.6821,-0.0279338389779943
4.6822,-0.077531693580629
4.6823,-0.056597533982108
4.6824,-0.045969422292381
4.6825,-0.0759213736014576
4.6826,-0.138079726072808
4.6827,-0.0833288455197434
4.6828,-0.132282573914672
4.6829,-0.113280797564407
4.683,-0.0749551816147678
4.6831,-0.00603348807112649
4.6832,0.038411340879948
4.6833,0.0219860781319089
4.6834,0.0570910512857836
4.6835,0.0448526203503683
4.6836,0.0216640141550189
4.6837,-0.0269676470202683
4.6838,-0.0575637259574129
4.6839,-0.077209629584659
4.684,-0.10458506948846
4.6841,-0.136469406026446
4.6842,-0.197983633175065
4.6843,-0.242106405269722
4.6844,-0.243716725449702
4.6845,-0.273346617158659
4.6846,-0.286873307107512
4.6847,-0.220850179097702
4.6848,-0.207001425882899
4.6849,-0.269481848631612
4.685,-0.242428469305543
4.6851,-0.164811039120782
4.6852,-0.157403566777205
4.6853,-0.0888039334826543
4.6854,-0.0601402378944454
4.6855,0.0203757582468985
4.6856,0.0583793071693391
4.6857,0.027139101754564
4.6858,0.00652700717735029
4.6859,0.0538704115732678
4.686,0.0368010210089809
4.6861,-0.0005584003877535
4.6862,-0.0276117749920237
4.6863,-0.0115085757716467
4.6864,0.000729855535274654
4.6865,0.0145786066492024
4.6866,-0.0131188956868555
4.6867,-0.00120252834961947
4.6868,-0.01376302365336
4.6869,-0.0759213736014576
4.687,-0.066903581749256
4.6871,-0.0768875655887569
4.6872,-0.133570829947719
4.6873,-0.157081502763201
4.6874,-0.127773677808381
4.6875,-0.153216734601185
4.6876,-0.188321712488357
4.6877,-0.227613523748024
4.6878,-0.224070819402672
4.6879,-0.149351966450262
4.688,-0.113602861568227
4.6881,-0.112636669556985
4.6882,-0.140978302161
4.6883,-0.115857309596988
4.6884,-0.128095741815491
4.6885,-0.137435598054038
4.6886,-0.0917025094711137
4.6887,-0.103940941484908
4.6888,-0.0875156774895867
4.6889,-0.0746331176193399
4.689,-0.0527327660867654
4.6891,0.00234017543774345
4.6892,0.0677191623005874
4.6893,0.0419540445913317
4.6894,-0.0759213736014576
4.6895,-0.129383997844672
4.6896,-0.14741958237894
4.6897,-0.236631316674169
4.6898,-0.267549464373008
4.6899,-0.272058360981516
4.69,-0.240818149127318
4.6901,-0.259497863330578
4.6902,-0.237597508777433
4.6903,-0.185423136296654
4.6904,-0.159658014877408
4.6905,-0.21344270642853
4.6906,-0.211832386288974
4.6907,-0.233732740369075
4.6908,-0.293636652143356
4.6909,-0.293636652143356
4.691,-0.268193592458846
4.6911,-0.207001425882899
4.6912,-0.105873325496419
4.6913,-0.0888039334826543
4.6914,-0.0198822393472192
4.6915,-0.0833288455197434
4.6916,-0.0839729735143469
4.6917,-0.065937389768206
4.6918,-0.0894480614796037
4.6919,-0.167065487233563
4.692,-0.18928790455372
4.6921,-0.1995939532967
4.6922,-0.18960996857567
4.6923,-0.204746977699836
4.6924,-0.207967617962607
4.6925,-0.157081502763201
4.6926,-0.164811039120782
4.6927,-0.237597508777433
4.6928,-0.240174021056642
4.6929,-0.259175799290052
4.693,-0.331318146682792
4.6931,-0.335182915428664
4.6932,-0.29138220379349
4.6933,-0.331962274806118
4.6934,-0.328741634193425
4.6935,-0.30780747044844
4.6936,-0.24178434123399
4.6937,-0.157081502763201
4.6938,-0.116501437605858
4.6939,-0.137757662063385
4.694,-0.0965334694644283
4.6941,-0.080108205550838
4.6942,-0.0842950375117516
4.6943,-0.0878377414877498
4.6944,-0.0730227976432132
4.6945,0.00362843135866839
4.6946,-0.0466135502715743
4.6947,-0.0314765428277692
4.6948,-0.0533768940686712
4.6949,-0.0527327660867654
4.695,-0.0710904136740847
4.6951,-0.0311544788411148
4.6952,-0.0205263673162702
4.6953,0.022630206085521
4.6954,0.0696515461155161
4.6955,0.0851106165705524
4.6956,0.0181213104055245
4.6957,-0.0337309907360989
4.6958,-0.0891259974810943
4.6959,-0.170930255435881
4.696,-0.18928790455372
4.6961,-0.190898224664285
4.6962,-0.150318158486956
4.6963,-0.12326478171659
4.6964,-0.0881598054859821
4.6965,-0.062394685842805
4.6966,-0.0978217254653084
4.6967,-0.172862639541311
4.6968,-0.210544130178843
4.6969,-0.231156228103779
4.697,-0.17898185589407
4.6971,-0.190898224664285
4.6972,-0.174150895613185
4.6973,-0.109416029524197
4.6974,-0.0991099814673146
4.6975,-0.0994320454679924
4.6976,-0.169964063384235
4.6977,-0.146775454355777
4.6978,-0.15933595086286
4.6979,-0.190576160642009
4.698,-0.164811039120782
4.6981,-0.140012110130924
4.6982,-0.141300366171177
4.6983,-0.0839729735143469
4.6984,0.0235963980155201
4.6985,0.0638543946652719
4.6986,0.034868637162032
4.6987,-0.0311544788411148
4.6988,-0.106195389498586
4.6989,-0.0900921894768306
4.699,-0.0350192466850937
4.6991,-0.0340530547232535
4.6992,-0.105873325496419
4.6993,-0.0981437894657043
4.6994,-0.0981437894657043
4.6995,-0.0649711977877549
4.6996,-0.0256793910774994
4.6997,-0.0295441589087776
4.6998,-0.0343751187104708
4.6999,-0.0140850876367026
4.7,-0.00742302153317692
4.7001,-0.0119319173424183
4.7002,-0.0480030842660758
4.7003,-0.0554105561469798
4.7004,-0.108551116371087
4.7005,-0.192609824913608
4.7006,-0.18649060839765
4.7007,-0.12948527700357
4.7008,-0.19196569685787
4.7009,-0.194220145054428
4.701,-0.140757517477531
4.7011,-0.101465708228455
4.7012,-0.110483500416193
4.7013,-0.0267468608024204
4.7014,0.011900817513123
4.7015,0.0482940471410767
4.7016,0.0482940471410767
4.7017,0.0434630874977564
4.7018,0.046361663285247
4.7019,0.0238171848175152
4.702,0.0299364004292407
4.7021,0.0576339024163768
4.7022,0.0904844275122703
4.7023,0.171322482229369
4.7024,0.0985360267192861
4.7025,0.0856534679730542
4.7026,0.107231753828355
4.7027,0.113350969180323
4.7028,0.0821107643037151
4.7029,0.0660075657279347
4.703,0.0695502694258264
4.7031,0.083721084154179
4.7032,0.073737101060577
4.7033,0.0505484949703657
4.7034,0.0189862251092274
4.7035,0.0131890734418211
4.7036,0.0344452961298614
4.7037,0.00513747387175433
4.7038,0.0173759052035336
4.7039,0.0582780303647095
4.704,0.0341232321516167
4.7041,0.0215627369552843
4.7042,0.0234951208373713
4.7043,-0.00162586979625862
4.7044,-0.010965725382268
4.7045,-0.0254586048440337
4.7046,-0.0399514844355986
4.7047,-0.0270689247921777
4.7048,-0.0254586048440337
4.7049,-0.000981741826718681
4.705,-0.0161187491762467
4.7051,-0.0280351167618352
4.7052,-0.0405956124205144
4.7053,0.0238171848175152
4.7054,0.063108989970338
4.7055,0.00739192175515332
4.7056,-0.0032361897211807
4.7057,0.0131890734418211
4.7058,0.0331570402165408
4.7059,0.0656855017550813
4.706,0.0569897744678277
4.7061,0.0238171848175152
4.7062,0.0366997439759835
4.7063,0.0444292794274208
4.7064,-0.00742302153317692
4.7065,-0.054766428155921
4.7066,-0.0347984605657275
4.7067,-0.0950244281295617
4.7068,-0.163624062734139
4.7069,-0.173608047409598
4.707,-0.115958588558552
4.7071,-0.0650724760455317
4.7072,-0.0554105561469798
4.7073,-0.0415618043983826
4.7074,-0.0489692762485271
4.7075,-0.0438162523490547
4.7076,-0.0679710520271353
4.7077,-0.0174070051272542
4.7078,0.0376659359091857
4.7079,0.0376659359091857
4.708,0.063108989970338
4.7081,0.062786925997005
4.7082,0.024783376757598
4.7083,0.00159477004899802
4.7084,-0.0550884921514166
4.7085,-0.135282429235495
4.7086,-0.179727263862428
4.7087,-0.188100928530496
4.7088,-0.209035090449591
4.7089,-0.247038646871378
4.709,-0.203882065943825
4.7091,-0.161369614592393
4.7092,-0.14011338944789
4.7093,-0.0850404440334501
4.7094,-0.146876733774716
4.7095,-0.162979934693237
4.7096,-0.12111161271233
4.7097,-0.138825133389543
4.7098,-0.171353599250235
4.7099,-0.190999504774893
4.71,-0.209035090449591
4.7101,-0.174252175455867
4.7102,-0.15138563001186
4.7103,-0.162979934693237
4.7104,-0.162657870672907
4.7105,-0.148809117874454
4.7106,-0.1462326057421
4.7107,-0.216442563215322
4.7108,-0.253157863699812
4.7109,-0.240919430075706
4.711,-0.248326903043054
4.7111,-0.256700568194511
4.7112,-0.247038646871378
4.7113,-0.174252175455867
4.7114,-0.213866050943781
4.7115,-0.223527971990855
4.7116,-0.210323346579474
4.7117,-0.155894526264537
4.7118,-0.158471038415938
4.7119,-0.109195244385825
4.712,-0.122399868753793
4.7121,-0.133994173181799
4.7122,-0.157504846358563
4.7123,-0.178761071788952
4.7124,-0.166844702943498
4.7125,-0.16813295902951
4.7126,-0.176184559596644
4.7127,-0.181337583986542
4.7128,-0.141401645507484
4.7129,-0.117568908604538
4.713,-0.122077804743313
4.7131,-0.0918037880910045
4.7132,-0.0982450681753655
4.7133,-0.0325440126279186
4.7134,-0.047358956278109
4.7135,-0.0351205245571036
4.7136,-0.098567132180346
4.7137,-0.169099151094873
4.7138,-0.240919430075706
4.7139,-0.290839357539179
4.714,-0.215476371112842
4.7141,-0.202593809820813
4.7142,-0.276346475141102
4.7143,-0.287296652935162
4.7144,-0.259921208653886
4.7145,-0.203882065943825
4.7146,-0.165556446858783
4.7147,-0.114670332523113
4.7148,-0.097923004170458
4.7149,-0.116602716576721
4.715,-0.0528340441843664
4.7151,-0.119823356672077
4.7152,-0.0860066360397396
4.7153,-0.116602716576721
4.7154,-0.117568908604538
4.7155,-0.129163212991415
4.7156,-0.172963919363657
4.7157,-0.215798435146915
4.7158,-0.214188114977419
4.7159,-0.209035090449591
4.716,-0.238020853710167
4.7161,-0.185846480345097
4.7162,-0.172319791318043
4.7163,-0.145588477709799
4.7164,-0.209357154481932
4.7165,-0.238020853710167
4.7166,-0.20967921851436
4.7167,-0.208713026417336
4.7168,-0.155250398227485
4.7169,-0.143334029599216
4.717,-0.113382076488872
4.7171,-0.0850404440334501
4.7172,-0.114670332523113
4.7173,-0.0615297720755884
4.7174,-0.014508429238904
4.7175,0.00256096200138679
4.7176,0.0524808788218983
4.7177,0.0128670094597359
4.7178,-0.0422059323839582
4.7179,-0.164912318816912
4.718,-0.182947904112728
4.7181,-0.184880288266891
4.7182,-0.147520861807647
4.7183,-0.159759294493559
4.7184,-0.136570685290428
4.7185,-0.0914817240875459
4.7186,-0.063462156058164
4.7187,-0.00613476558991347
4.7188,0.0202744810327246
4.7189,0.0708385253143861
4.719,0.0614986701031377
4.7191,0.0843652120940075
4.7192,0.0592442222868035
4.7193,0.062786925997005
4.7194,0.0292922724710927
4.7195,0.0360556160202323
4.7196,0.033801168173315
4.7197,0.0718047172302543
4.7198,0.0782459966573745
4.7199,0.0650413738092151
4.72,0.113028905214859
4.7201,0.0692282054535549
4.7202,0.00932430565286337
4.7203,0.0170538412222182
4.7204,0.0392762557967265
4.7205,0.0602104142084123
4.7206,0.0908064914811487
4.7207,0.144269109649894
4.7208,0.209970156853772
4.7209,0.243142743826309
4.721,0.214479052191776
4.7211,0.211580476618144
4.7212,0.21254666847634
4.7213,0.139438150228931
4.7214,0.113995097111109
4.7215,0.0885520436979453
4.7216,0.10111253845901
4.7217,0.0879079157594343
4.7218,0.0669737576461765
4.7219,0.119470184515179
4.722,0.240888296179139
4.7221,0.244753063573333
4.7222,0.201274430110584
4.7223,0.183560912586902
4.7224,0.16649152286176
4.7225,0.181306464893752
4.7226,0.160050243690572
4.7227,0.15521928430123
4.7228,0.118181928656618
4.7229,0.0228509928769089
4.723,-0.0302895646932922
4.7231,0.0157655852963662
4.7232,0.0495823030438581
4.7233,-0.0161187491762467
4.7234,-0.0480030842660758
4.7235,-0.054766428155921
4.7236,-0.014186365251624
4.7237,-0.0299675007028904
4.7238,-0.0499354682315808
4.7239,-0.0557326201426107
4.724,-0.11177175644775
4.7241,-0.163301998713648
4.7242,-0.149131181891353
4.7243,-0.143978157630419
4.7244,-0.135282429235495
4.7245,-0.200983489668968
4.7246,-0.240275301993846
4.7247,-0.146876733774716
4.7248,-0.132383853116416
4.7249,-0.128841148979337
4.725,-0.146554669758369
4.7251,-0.0934141081093797
4.7252,-0.0763447160055815
4.7253,-0.0728020120089467
4.7254,-0.0538002361698399
4.7255,-0.0380191004824302
4.7256,-0.101143644222817
4.7257,-0.129163212991415
4.7258,-0.0982450681753655
4.7259,-0.097923004170458
4.726,-0.0843963160296135
4.7261,-0.0950244281295617
4.7262,-0.110483500416193
4.7263,-0.0792432920091456
4.7264,-0.0608856440819445
4.7265,-0.0895493400683056
4.7266,-0.0715137560122669
4.7267,-0.0689372440222475
4.7268,-0.111127628431822
4.7269,-0.111127628431822
4.727,-0.0953464921338154
4.7271,-0.0206276450091974
4.7272,-0.0405956124205144
4.7273,-0.0860066360397396
4.7274,-0.11016143640849
4.7275,-0.0943803001212718
4.7276,-0.108873180378419
4.7277,-0.120145420682027
4.7278,-0.121433676722582
4.7279,-0.129163212991415
4.728,-0.160081358513165
4.7281,-0.159759294493559
4.7282,-0.102431900245808
4.7283,-0.081497740015868
4.7284,-0.111127628431822
4.7285,-0.169743279138855
4.7286,-0.138181005360837
4.7287,-0.133350045155415
4.7288,-0.227070676394554
4.7289,-0.311451457285559
4.729,-0.340115159168215
4.7291,-0.362981708438875
4.7292,-0.356540426901384
4.7293,-0.324334019831285
4.7294,-0.234478149273258
4.7295,-0.207102706257352
4.7296,-0.213221922876764
4.7297,-0.169743279138855
4.7298,-0.118213036623459
4.7299,-0.128841148979337
4.73,-0.0860066360397396
4.7301,-0.105008412295314
4.7302,-0.124010188807326
4.7303,-0.138825133389543
4.7304,-0.12819702095541
4.7305,-0.0566988121299101
4.7306,-0.0457486363093592
4.7307,-0.0318998846462726
4.7308,-0.0595973880954766
4.7309,-0.0209497089977404
4.731,-0.0183731970911725
4.7311,-0.0644283480503783
4.7312,-0.0792432920091456
4.7313,-0.087939020054247
4.7314,-0.0821418680184257
4.7315,-0.082785996021267
4.7316,-0.0763447160055815
4.7317,-0.0335102046008748
4.7318,-0.00935540544993074
4.7319,-0.0138643012644067
4.732,0.0135111374238469
4.7321,0.027037824615761
4.7322,0.00256096200138679
4.7323,0.0106125615834713
4.7324,-0.036730844514964
4.7325,-0.021915900963751
4.7326,-0.0251365408545974
4.7327,-0.0496134042371626
4.7328,-0.0531561081794568
4.7329,-0.0541223001651327
4.733,-0.0860066360397396
4.7331,-0.153962142154338
4.7332,-0.182947904112728
4.7333,-0.127230828920093
4.7334,-0.139791325433187
4.7335,-0.157504846358563
4.7336,-0.109839372400861
4.7337,-0.032866076618839
4.7338,-0.0422059323839582
4.7339,-0.0692593080207569
4.734,-0.054766428155921
4.7341,-0.0418838683911373
4.7342,-0.117890972613961
4.7343,-0.061851836072513
4.7344,-0.0554105561469798
4.7345,-0.0167628771516243
4.7346,-0.0209497089977404
4.7347,-0.0322219486370631
4.7348,-0.0679710520271353
4.7349,-0.0186952610792717
4.735,-0.0257806688335342
4.7351,-0.0270689247921777
4.7352,-0.0599194520919912
4.7353,-0.0290013087320724
4.7354,0.0147993933513564
4.7355,0.0263936966565754
4.7356,0.0173759052035336
4.7357,0.0131890734418211
4.7358,0.0215627369552843
4.7359,0.0183420971471264
4.736,-0.000337613857423355
4.7361,-0.0302895646932922
4.7362,-0.0686151800238075
4.7363,-0.0370529085067322
4.7364,-0.0357646525400517
4.7365,-0.0566988121299101
4.7366,-0.0190173250674342
4.7367,-0.0428500603697982
4.7368,-0.104364284282496
4.7369,-0.107262860342498
4.737,-0.0782771000073238
4.7371,0.00578160183874126
4.7372,0.00900224167006171
4.7373,0.00384921793705514
4.7374,0.00513747387175433
4.7375,-0.0460707003029759
4.7376,-0.0583091321101
4.7377,-0.117568908604538
4.7378,-0.125298444851519
4.7379,-0.0692593080207569
4.738,-0.0914817240875459
4.7381,-0.0509016602152379
4.7382,-0.0531561081794568
4.7383,-0.0222379649525484
4.7384,-0.0238482848974923
4.7385,-0.014186365251624
4.7386,0.0251054407375094
4.7387,0.0263936966565754
4.7388,0.0199524170519383
4.7389,0.00256096200138679
4.739,0.00739192175515332
4.7391,-0.00903334146364992
4.7392,-0.00710095754726826
4.7393,-0.00549063761865255
4.7394,-0.0351205245571036
4.7395,-0.058953260102652
4.7396,-0.12111161271233
4.7397,-0.149131181891353
4.7398,-0.103398092263821
4.7399,-0.138825133389543
4.74,-0.168777087073004
4.7401,-0.148487053857634
4.7402,-0.127552892931789
4.7403,-0.122721932764347
4.7404,-0.0966347481515554
4.7405,-0.0544443641604931
4.7406,0.00739192175515332
4.7407,0.0614986701031377
4.7408,0.0408865756828596
4.7409,0.0695502694258264
4.741,0.0660075657279347
4.7411,0.0689061414812308
4.7412,0.116893672797308
4.7413,0.0988580906869233
4.7414,0.131064487208927
4.7415,0.0943491951355124
4.7416,0.0540911986966703
4.7417,0.046683727261357
4.7418,0.081788700333469
4.7419,0.0701943973702114
4.742,0.0244613127776285
4.7421,0.0350894240861801
4.7422,0.0840431481241187
4.7423,0.0476499191893547
4.7424,0.00513747387175433
4.7425,-0.0103215974091463
4.7426,0.0238171848175152
4.7427,-0.0215938369750171
4.7428,-0.128841148979337
4.7429,-0.183269968138214
4.743,-0.159437230474034
4.7431,-0.230613380808944
4.7432,-0.233511957155977
4.7433,-0.143011965583731
4.7434,-0.122721932764347
4.7435,-0.116280652567599
4.7436,-0.113382076488872
4.7437,-0.0757005880055629
4.7438,-0.0579870681139261
4.7439,-0.103398092263821
4.744,-0.0866507640442895
4.7441,-0.0921258520945353
4.7442,-0.097923004170458
4.7443,-0.11370414049732
4.7444,-0.0557326201426107
4.7445,-0.0592753240990302
4.7446,-0.11885716464268
4.7447,-0.0728020120089467
4.7448,-0.0515457882046784
4.7449,0.0173759052035336
4.745,-0.000337613857423355
4.7451,-0.00677889356142149
4.7452,-0.0261027328230987
4.7453,-0.00710095754726826
4.7454,-0.0570208761258122
4.7455,-0.0924479160981381
4.7456,-0.102753964251739
4.7457,-0.0650724760455317
4.7458,-0.135604493249112
4.7459,-0.160081358513165
4.746,-0.140435453462672
4.7461,-0.088905212062467
4.7462,-0.0254586048440337
4.7463,-0.0135422372772521
4.7464,0.00352715395322901
4.7465,0.0318687843023075
4.7466,-0.0512237242099245
4.7467,-0.0908375960808447
4.7468,-0.0943803001212718
4.7469,-0.123688124796467
4.747,-0.193253952969683
4.7471,-0.197440785342402
4.7472,-0.126908764908473
4.7473,-0.141079581492468
4.7474,-0.174896303502464
4.7475,-0.164268190775364
4.7476,-0.201305553699166
4.7477,-0.182947904112728
4.7478,-0.181015519961554
4.7479,-0.230291316770829
4.748,-0.221595587775143
4.7481,-0.216764627249656
4.7482,-0.243173878365054
4.7483,-0.257344696285649
4.7484,-0.210001282546873
4.7485,-0.183914096189435
4.7486,-0.227714804469101
4.7487,-0.193898081026095
4.7488,-0.164268190775364
4.7489,-0.181015519961554
4.749,-0.157504846358563
4.7491,-0.188100928530496
4.7492,-0.163301998713648
4.7493,-0.230935444847147
4.7494,-0.285686332664435
4.7495,-0.262819785075215
4.7496,-0.225460356209732
4.7497,-0.213866050943781
4.7498,-0.183269968138214
4.7499,-0.179083135813361
4.75,-0.185846480345097
4.7501,-0.174252175455867
4.7502,-0.193253952969683
4.7503,-0.192931888941603
4.7504,-0.229647188694865
4.7505,-0.25605644010374
4.7506,-0.300179215187417
4.7507,-0.245106262616587
4.7508,-0.231579572923821
4.7509,-0.229003060619256
4.751,-0.182947904112728
4.7511,-0.14591054172591
4.7512,-0.224816228136421
4.7513,-0.223527971990855
4.7514,-0.20645857819396
4.7515,-0.145266413693766
4.7516,-0.0757005880055629
4.7517,-0.132705917129338
4.7518,-0.12819702095541
4.7519,-0.0776329720064616
4.752,-0.0225600289414096
4.7521,-0.0566988121299101
4.7522,-0.035442588548545
4.7523,0.00449334590452573
4.7524,-0.0125760453161641
4.7525,-0.0831080600227942
4.7526,-0.0969568121561719
4.7527,-0.0988891961853993
4.7528,-0.109195244385825
4.7529,-0.158471038415938
4.753,-0.240275301993846
4.7531,-0.217086691284077
4.7532,-0.291483485650247
4.7533,-0.295670318381574
4.7534,-0.309841136978475
4.7535,-0.222239715846696
4.7536,-0.197440785342402
4.7537,-0.237054661589936
4.7538,-0.277634731346482
4.7539,-0.207424770289177
4.754,-0.104042220276198
4.7541,-0.0779550360068575
4.7542,-0.0686151800238075
4.7543,-0.0489692762485271
4.7544,-0.00645682957563658
4.7545,-0.0927699801018131
4.7546,-0.11563652454958
4.7547,-0.154284206172505
4.7548,-0.171031535227796
4.7549,-0.211289538677792
4.755,-0.210001282546873
4.7551,-0.1462326057421
4.7552,-0.170709471205438
4.7553,-0.115314460540683
4.7554,-0.0808536120135937
4.7555,-0.081497740015868
4.7556,-0.0705475640154884
4.7557,-0.0215938369750171
4.7558,-0.0399514844355986
4.7559,0.00674779378876921
4.756,-0.0215938369750171
4.7561,-0.0592753240990302
4.7562,-0.00259206175102786
4.7563,-0.0232041569193233
4.7564,-0.0441383163422728
4.7565,-0.0583091321101
4.7566,-0.0885831480596553
4.7567,-0.0679710520271353
4.7568,-0.0673269240307399
4.7569,-0.128841148979337
4.757,-0.140757517477531
4.7571,-0.0966347481515554
4.7572,-0.00967746943627371
4.7573,-0.0222379649525484
4.7574,-0.0335102046008748
4.7575,-0.00806714950518006
4.7576,0.0502264309949182
4.7577,0.0408865756828596
4.7578,0.0515146868963788
4.7579,0.105299370029399
4.758,0.131386551171796
4.7581,0.115927480902333
4.7582,0.0914506194187552
4.7583,0.0276819525747156
4.7584,0.0428189595443678
4.7585,-0.00903334146364992
4.7586,-0.0357646525400517
4.7587,-0.0438162523490547
4.7588,-0.047358956278109
4.7589,-0.0492913402428114
4.759,-0.0583091321101
4.7591,-0.0119319173424183
4.7592,0.000950642080434681
4.7593,-0.0270689247921777
4.7594,0.00771398573825513
4.7595,0.0582780303647095
4.7596,0.086297595912273
4.7597,0.0982139627515996
4.7598,0.128810039467572
4.7599,0.130420359283052
4.76,0.148133877179583
4.7601,0.157795795976723
4.7602,0.158761987854338
4.7603,0.13170861513462
4.7604,0.12558939983319
4.7605,0.144913237571944
4.7606,0.123979080014279
4.7607,0.147167685297747
4.7608,0.132996870985465
4.7609,0.0795342525403107
4.761,0.085975531942689
4.7611,0.0566677104934719
4.7612,-0.0119319173424183
4.7613,-0.12658670089693
4.7614,-0.0901934680744313
4.7615,-0.109195244385825
4.7616,-0.139469261418561
4.7617,-0.15138563001186
4.7618,-0.0847183800314962
4.7619,-0.0818198040171114
4.762,-0.0895493400683056
4.7621,-0.0734461400077052
4.7622,0.0135111374238469
4.7623,-0.000659677842040463
4.7624,0.0180200331659877
4.7625,-0.000981741826718681
4.7626,0.0292922724710927
4.7627,0.149422133021426
4.7628,0.094993323072022
4.7629,0.064397245863136
4.763,0.093705067198804
4.7631,0.0721267812021055
4.7632,0.0479719831652433
4.7633,-0.00999953342267888
4.7634,-0.0502575322260661
4.7635,-0.054766428155921
4.7636,-0.0631400920608966
4.7637,-0.0499354682315808
4.7638,-0.058631196106342
4.7639,-0.037374972498566
4.764,-0.0393073564509462
4.7641,-0.0393073564509462
4.7642,0.0286481445127146
4.7643,0.107553817794679
4.7644,0.104333178129269
4.7645,0.081788700333469
4.7646,0.0821107643037151
4.7647,0.0618207340766849
4.7648,-0.00677889356142149
4.7649,-0.0463927642966592
4.765,-0.0579870681139261
4.7651,-0.0737682040071892
4.7652,-0.156538654301907
4.7653,-0.204848258036983
4.7654,-0.171675663272756
4.7655,-0.133027981142338
4.7656,-0.0885831480596553
4.7657,-0.043494188355903
4.7658,-0.00388031769157923
4.7659,0.0553794545955061
4.766,0.11077445745528
4.7661,0.0669737576461765
4.7662,-0.000659677842040463
4.7663,-0.0167628771516243
4.7664,-0.0370529085067322
4.7665,-0.0992112601905256
4.7666,-0.0415618043983826
4.7667,-0.00226999776604349
4.7668,-0.0167628771516243
4.7669,-0.0550884921514166
4.767,-0.0515457882046784
4.7671,-0.0550884921514166
4.7672,-0.0805315480125627
4.7673,-0.126908764908473
4.7674,-0.127874956943561
4.7675,-0.15364007813625
4.7676,-0.115314460540683
4.7677,-0.148487053857634
4.7678,-0.0840742520278019
4.7679,-0.0161187491762467
4.768,-0.0383411644744607
4.7681,-0.070869628014345
4.7682,-0.0898714040713325
4.7683,-0.0364087805232611
4.7684,-0.0341543325831708
4.7685,-0.0302895646932922
4.7686,-0.0608856440819445
4.7687,-0.0769888440058809
4.7688,-0.0470368922842257
4.7689,-0.0370529085067322
4.769,-0.0570208761258122
4.7691,-0.103076028257744
4.7692,-0.166200574900979
4.7693,-0.246072454743575
4.7694,-0.26185359293394
4.7695,-0.159759294493559
4.7696,-0.169743279138855
4.7697,-0.132383853116416
4.7698,-0.139791325433187
4.7699,-0.12465431682927
4.77,-0.108229052363829
4.7701,-0.134316237195107
4.7702,-0.154928334209079
4.7703,-0.109517308393306
4.7704,-0.127874956943561
4.7705,-0.118535100633032
4.7706,-0.0699034360179838
4.7707,-0.047681020272059
4.7708,-0.138825133389543
4.7709,-0.185202352292876
4.771,-0.197118721313224
4.7711,-0.223850036027115
4.7712,-0.22578242024652
4.7713,-0.235766405430882
4.7714,-0.233511957155977
4.7715,-0.180371391911826
4.7716,-0.14591054172591
4.7717,-0.119179228652404
4.7718,-0.114348268514441
4.7719,-0.0995333241957248
4.772,-0.0905155320776021
4.7721,-0.123688124796467
4.7722,-0.154928334209079
4.7723,-0.162657870672907
4.7724,-0.1616916786124
4.7725,-0.153962142154338
4.7726,-0.144622285661935
4.7727,-0.163301998713648
4.7728,-0.228036868506507
4.7729,-0.213866050943781
4.773,-0.20967921851436
4.7731,-0.135926557262807
4.7732,-0.158793102435223
4.7733,-0.11885716464268
4.7734,-0.0566988121299101
4.7735,-0.0296454367125531
4.7736,-0.010965725382268
4.7737,-0.0032361897211807
4.7738,-0.00871127747743123
4.7739,-0.0518678521994994
4.774,-0.0930920441055603
4.7741,-0.110483500416193
4.7742,-0.0876169560516503
4.7743,-0.0782771000073238
4.7744,-0.122721932764347
4.7745,-0.0953464921338154
4.7746,-0.0232041569193233
4.7747,-0.00291412573607359
4.7748,-0.032866076618839
4.7749,-0.116924780585919
4.775,-0.0969568121561719
4.7751,-0.0512237242099245
4.7752,-0.067648988028903
4.7753,-0.113382076488872
4.7754,-0.124976380840356
4.7755,-0.141079581492468
4.7756,-0.0918037880910045
4.7757,-0.11563652454958
4.7758,-0.061851836072513
4.7759,-0.104364284282496
4.776,-0.152673886082464
4.7761,-0.201305553699166
4.7762,-0.169099151094873
4.7763,-0.174896303502464
4.7764,-0.176184559596644
4.7765,-0.158471038415938
4.7766,-0.113060012480498
4.7767,-0.118213036623459
4.7768,-0.16587851087984
4.7769,-0.181981712036768
4.777,-0.135282429235495
4.7771,-0.0624959640665677
4.7772,-0.0982450681753655
4.7773,-0.112737948472199
4.7774,-0.0615297720755884
4.7775,-0.036730844514964
4.7776,-0.021271772986347
4.7777,0.0019168340331884
4.7778,0.0296143364501954
4.7779,0.0386321278418794
4.778,0.0544132626714609
4.7781,0.0238171848175152
4.7782,0.0650413738092151
4.7783,0.100146346556981
4.7784,0.11367303314574
4.7785,0.115605416937247
4.7786,0.171322482229369
4.7787,0.162304691402373
4.7788,0.106909689861983
4.7789,0.00964636963560512
4.779,-0.00838921349127462
4.7791,-0.0170849411394077
4.7792,-0.021915900963751
4.7793,-0.0843963160296135
4.7794,-0.113382076488872
4.7795,-0.0847183800314962
4.7796,-0.060241516088574
4.7797,-0.0560546841383094
4.7798,-0.0225600289414096
4.7799,-0.0322219486370631
4.78,-0.0283571807518498
4.7801,0.0176979691847901
4.7802,0.0524808788218983
4.7803,0.0763136128314207
4.7804,0.0605324781821742
4.7805,-0.0167628771516243
4.7806,-0.0370529085067322
4.7807,-0.133672109168568
4.7808,-0.136570685290428
4.7809,-0.0850404440334501
4.781,-0.0174070051272542
4.7811,0.0354114880642543
4.7812,0.0408865756828596
4.7813,0.00964636963560512
4.7814,0.0470057912374116
4.7815,0.0766356768025424
4.7816,0.00835811370427848
4.7817,-0.0222379649525484
4.7818,0.0418527676138657
4.7819,0.0222068649162133
4.782,0.0205965450134523
4.7821,-0.0267468608024204
4.7822,-0.0386632284665568
4.7823,-0.0612077080787322
4.7824,-0.0338322685919902
4.7825,-0.0360867165316237
4.7826,0.0315467203236063
4.7827,0.0711605892863946
4.7828,0.0795342525403107
4.7829,0.0173759052035336
4.783,0.0518367508716068
4.7831,0.0273598885952672
4.7832,-0.047358956278109
4.7833,-0.141401645507484
4.7834,-0.152029758047003
4.7835,-0.11080556442397
4.7836,-0.158148974396733
4.7837,-0.128519084967335
4.7838,-0.0351205245571036
4.7839,-0.0563767481340758
4.784,-0.0779550360068575
4.7841,-0.0573429401217822
4.7842,0.0373438719315082
4.7843,0.0801783804814699
4.7844,0.104977306062738
4.7845,0.118503992621329
4.7846,0.179696145111754
4.7847,0.105621433996013
4.7848,0.0840431481241187
4.7849,0.106587625895563
4.785,0.0479719831652433
4.7851,-0.105652540308426
4.7852,-0.193253952969683
4.7853,-0.185524416318945
4.7854,-0.201305553699166
4.7855,-0.210967474644933
4.7856,-0.180371391911826
4.7857,-0.139147197404013
4.7858,-0.195508401168602
4.7859,-0.219341139527468
4.786,-0.192609824913608
4.7861,-0.192931888941603
4.7862,-0.246394518786085
4.7863,-0.190999504774893
4.7864,-0.138503069375151
4.7865,-0.116602716576721
4.7866,-0.136248621276578
4.7867,-0.143656093614778
4.7868,-0.152673886082464
4.7869,-0.171997727295359
4.787,-0.244140070490413
4.7871,-0.242529750281932
4.7872,-0.226748612357413
4.7873,-0.240597366034731
4.7874,-0.219663203562588
4.7875,-0.136892749304354
4.7876,-0.066682796034621
4.7877,-0.0534781721746147
4.7878,-0.103076028257744
4.7879,-0.18874505658422
4.788,-0.158148974396733
4.7881,-0.127230828920093
4.7882,-0.118535100633032
4.7883,-0.0792432920091456
4.7884,-0.0695813720193356
4.7885,-0.158148974396733
4.7886,-0.152995950100313
4.7887,-0.153962142154338
4.7888,-0.107906988356645
4.7889,-0.133994173181799
4.789,-0.166844702943498
4.7891,-0.216764627249656
4.7892,-0.180371391911826
4.7893,-0.119823356672077
4.7894,-0.159437230474034
4.7895,-0.158148974396733
4.7896,-0.160081358513165
4.7897,-0.162657870672907
4.7898,-0.178439007764625
4.7899,-0.132705917129338
4.79,-0.133672109168568
4.7901,-0.152029758047003
4.7902,-0.154606270190752
4.7903,-0.217086691284077
4.7904,-0.216442563215322
4.7905,-0.223527971990855
4.7906,-0.219663203562588
4.7907,-0.129163212991415
4.7908,-0.131739725090801
4.7909,-0.147520861807647
4.791,-0.126908764908473
4.7911,-0.054766428155921
4.7912,-0.0705475640154884
4.7913,-0.0528340441843664
4.7914,-0.0641062840529048
4.7915,-0.0370529085067322
4.7916,-0.0563767481340758
4.7917,-0.143334029599216
4.7918,-0.159115166454588
4.7919,-0.154284206172505
4.792,-0.179083135813361
4.7921,-0.199373169519254
4.7922,-0.173930111432692
4.7923,-0.197762849371665
4.7924,-0.18874505658422
4.7925,-0.144622285661935
4.7926,-0.158793102435223
4.7927,-0.112415884463975
4.7928,-0.15364007813625
4.7929,-0.154928334209079
4.793,-0.116280652567599
4.7931,-0.0792432920091456
4.7932,-0.128519084967335
4.7933,-0.12658670089693
4.7934,-0.043494188355903
4.7935,-0.015474621201121
4.7936,0.00449334590452573
4.7937,0.027037824615761
4.7938,0.0470057912374116
4.7939,0.00545953785527799
4.794,-0.0425279963768451
4.7941,-0.082785996021267
4.7942,-0.112415884463975
4.7943,-0.120789548702154
4.7944,-0.202593809820813
4.7945,-0.148164989840893
4.7946,-0.0860066360397396
4.7947,-0.0570208761258122
4.7948,-0.0560546841383094
4.7949,-0.0766667800056961
4.795,-0.1616916786124
4.7951,-0.232545765039499
4.7952,-0.180049327887085
4.7953,-0.186168544371332
4.7954,-0.224816228136421
4.7955,-0.175218367525886
4.7956,-0.133027981142338
4.7957,-0.109517308393306
4.7958,-0.0992112601905256
4.7959,-0.073124076008291
4.796,-0.0566988121299101
4.7961,-0.0499354682315808
4.7962,-0.0818198040171114
4.7963,-0.0782771000073238
4.7964,-0.0480030842660758
4.7965,-0.0802094840116024
4.7966,-0.061851836072513
4.7967,0.000628578096061649
4.7968,0.0167317772408438
4.7969,-0.00259206175102786
4.797,-0.0573429401217822
4.7971,-0.0930920441055603
4.7972,-0.0682931160254367
4.7973,-0.0895493400683056
4.7974,-0.0905155320776021
4.7975,-0.0705475640154884
4.7976,-0.0505795962206185
4.7977,-0.0338322685919902
4.7978,-0.00452444566222378
4.7979,-0.0174070051272542
4.798,0.00320508996934227
4.7981,-0.0119319173424183
4.7982,0.021884800935778
4.7983,-0.0534781721746147
4.7984,-0.112093820455825
4.7985,-0.133350045155415
4.7986,-0.122077804743313
4.7987,-0.122077804743313
4.7988,-0.14784292582423
4.7989,-0.12819702095541
4.799,-0.0747343960060609
4.7991,-0.0112877893689224
4.7992,-0.0570208761258122
4.7993,-0.0631400920608966
4.7994,-0.074412332006367
4.7995,-0.0528340441843664
4.7996,-0.0824639320198109
4.7997,-0.044782444328908
4.7998,0.0563456465190619
4.7999,0.108520009693363
4.8,0.199568526853605
4.8001,0.142885269541627
4.8002,0.0929653542107399
4.8003,0.0662340441880811
4.8004,-0.0142819523220461
4.8005,-0.0712872803388553
4.8006,-0.0703210883199599
4.8007,-0.0957641450414022
4.8008,-0.0873904807521407
4.8009,-0.0851360326830188
4.801,-0.026842448138561
4.8011,-0.00623035249322661
4.8012,0.0179244467488919
4.8013,0.0607589565452801
4.8014,0.0894226504946105
4.8015,0.170582770445761
4.8016,0.194737567476149
4.8017,0.189584544129869
4.8018,0.187974224331946
4.8019,0.176057857794018
4.802,0.119696663862286
4.8021,0.136121926244761
4.8022,0.0961859939470179
4.8023,0.0572162527675281
4.8024,0.0755738995407686
4.8025,0.0646237242948607
4.8026,0.0111611029974645
4.8027,0.0143817428825787
4.8028,0.0729973877240785
4.8029,0.023399534527334
4.803,-0.0133157603403962
4.8031,0.00729633512691419
4.8032,0.0469102053738598
4.8033,-0.0123495683593462
4.8034,-0.0809492005644279
4.8035,-0.0976965291154811
4.8036,-0.0906111208573126
4.8037,-0.124427842427595
4.8038,-0.185297943507479
4.8039,-0.188840647896683
4.804,-0.138598659345346
4.8041,-0.0880346087725693
4.8042,-0.0928655689354499
4.8043,-0.0671004482617478
4.8044,-0.0287748321194932
4.8045,-0.0480986720658551
4.8046,-0.0516413760834372
4.8047,-0.0232997441798972
4.8048,-0.0220114881969669
4.8049,-0.00397590454855312
4.805,-0.0812712645731004
4.8051,-0.103815745368346
4.8052,-0.128614674682476
4.8053,-0.10123923325848
4.8054,-0.0777285604818096
4.8055,-0.113477665824703
4.8056,-0.0944758889935482
4.8057,-0.0922214409127444
4.8058,-0.107036385512659
4.8059,-0.0674225122672393
4.806,-0.033605792082633
4.8061,-0.0168584642760532
4.8062,-0.0220114881969669
4.8063,-0.0294189601136849
4.8064,-0.067744576272804
4.8065,-0.0812712645731004
4.8066,-0.0426235840555241
4.8067,-0.0783726884977367
4.8068,-0.0719314083518203
4.8069,0.0101949110306896
4.807,-0.0113833763788951
4.8071,-0.0490648640697979
4.8072,-0.0207232322151198
4.8073,-0.0139598883280961
4.8074,-0.00397590454855312
4.8075,-0.0410132640563541
4.8076,-0.0348940480754238
4.8077,0.0324173261232942
4.8078,0.0395027337721571
4.8079,0.101339017513954
4.808,0.125493815306175
4.8081,0.132257158636936
4.8082,0.0140596788943529
4.8083,-0.108646705587735
4.8084,-0.128614674682476
4.8085,-0.233607549747045
4.8086,-0.29415559254262
4.8087,-0.30639402714767
4.8088,-0.268712531588588
4.8089,-0.229742781172479
4.809,-0.222335308108479
4.8091,-0.219114667661045
4.8092,-0.165652037539553
4.8093,-0.127648482622452
4.8094,-0.1691947418708
4.8095,-0.163397589334117
4.8096,-0.112833537792087
4.8097,-0.131191186846084
4.8098,-0.181755239128843
4.8099,-0.15953282099159
4.81,-0.0970524010904813
4.8101,-0.144395811766205
4.8102,-0.164685845451
4.8103,-0.144717875790367
4.8104,-0.122817522333169
4.8105,-0.133767699014866
4.8106,-0.112511473775897
4.8107,-0.108324641572564
4.8108,-0.117664498044394
4.8109,-0.136666275210955
4.811,-0.117342434027021
4.8111,-0.107680513542455
4.8112,-0.1195968821503
4.8113,-0.138598659345346
4.8114,-0.12539403448521
4.8115,-0.134411827057873
4.8116,-0.165007909480433
4.8117,-0.222013244063323
4.8118,-0.199468761128223
4.8119,-0.232963421650354
4.812,-0.182399367196902
4.8121,-0.0954420810293239
4.8122,-0.0699990243138085
4.8123,-0.0432677120556831
4.8124,-0.067744576272804
4.8125,-0.0651680642303331
4.8126,-0.0687107682899374
4.8127,-0.0613032961753676
4.8128,-0.0419794560556459
4.8129,-0.00204352059853208
4.813,-0.0104171843990418
4.8131,-0.012671632352963
4.8132,0.0253319184448329
4.8133,0.0198568306727609
4.8134,0.00858459108478779
4.8135,-0.00848480044112443
4.8136,-0.0577605921341464
4.8137,-0.12539403448521
4.8138,-0.179500790893372
4.8139,-0.215571963179424
4.814,-0.210418938498524
4.8141,-0.149226772137312
4.8142,-0.0735417283855233
4.8143,-0.0728976003718207
4.8144,-0.0555061441124541
4.8145,0.00890665507409605
4.8146,0.100050761623495
4.8147,0.139020501946025
4.8148,0.0965080579203509
4.8149,0.135799862277711
4.815,0.0903888424178406
4.8151,0.0626913404211056
4.8152,0.0649457882736192
4.8153,0.0942536101058954
4.8154,0.0507749731535465
4.8155,0.0552838688857909
4.8156,0.137732246079282
4.8157,0.161564979491074
4.8158,0.142885269541627
4.8159,0.0800827952113699
4.816,0.0987625057321877
4.8161,0.125815879274803
4.8162,0.087168202671838
4.8163,0.045944013427604
4.8164,0.0552838688857909
4.8165,0.082981370993871
4.8166,0.131935094669299
4.8167,0.118408407983645
4.8168,0.10713616901059
4.8169,0.131613030701613
4.817,0.128714454990215
4.8171,0.131613030701613
4.8172,0.122595239586268
4.8173,0.15093686867707
4.8174,0.107780296953613
4.8175,0.0562500608269218
4.8176,0.0298408142436637
4.8177,0.043689565550922
4.8178,0.0308070061989851
4.8179,0.00439775921794051
4.818,0.00504188719816311
4.8181,0.0317731981537543
4.8182,0.0491646532463791
4.8183,0.0343497100304476
4.8184,0.0147038068707412
4.8185,-0.0245880001639131
4.8186,-0.0120275043657961
4.8187,-0.08191539259067
4.8188,-0.139886915436574
4.8189,-0.128292610662387
4.819,-0.0825595206085393
4.8191,-0.109934961649203
4.8192,-0.064523936220445
4.8193,-0.0632356802015425
4.8194,-0.0339278560807269
4.8195,-0.0757961764358124
4.8196,-0.0690328322957951
4.8197,-0.033605792082633
4.8198,0.00665220714759249
4.8199,0.0282304943168983
4.82,0.00439775921794051
4.8201,0.0224333425677449
4.8202,0.0101949110306896
4.8203,-0.00204352059853208
4.8204,0.0143817428825787
4.8205,0.0166361907983886
4.8206,0.0614030845041192
4.8207,0.0498087812094232
4.8208,0.0514191011160006
4.8209,0.0755738995407686
4.821,0.0691326199922846
4.8211,0.042079245637213
4.8212,0.0205009586468821
4.8213,0.00439775921794051
4.8214,0.00987284704163707
4.8215,-0.0522855040875588
4.8216,-0.0332837280846081
4.8217,0.00471982320808405
4.8218,0.0295187502584337
4.8219,-0.00623035249322661
4.822,0.0101949110306896
4.8221,0.0304849422139393
4.8222,0.00987284704163707
4.8223,0.0182465107363605
4.8224,0.0572162527675281
4.8225,0.0681664280580621
4.8226,0.0588265726673758
4.8227,0.0758959635176026
4.8228,0.0800827952113699
4.8229,0.0391806697887542
4.823,-0.0107392483922599
4.8231,-0.0242659361678072
4.8232,-0.0532516960942766
4.8233,-0.0864242887220644
4.8234,-0.107680513542455
4.8235,-0.108324641572564
4.8236,-0.0600150401593668
4.8237,-0.0587267841445224
4.8238,-0.11863069009699
4.8239,-0.103171617340415
4.824,-0.08191539259067
4.8241,-0.0487428000684128
4.8242,-0.0745079204066316
4.8243,-0.0864242887220644
4.8244,-0.0880346087725693
4.8245,-0.0815933285818478
4.8246,-0.0365043680679708
4.8247,-0.0429456480555685
4.8248,-0.105104001425138
4.8249,-0.0880346087725693
4.825,-0.0561502721182926
4.8251,-0.120885138222492
4.8252,-0.165007909480433
4.8253,-0.148582644086755
4.8254,-0.129258802722894
4.8255,-0.0880346087725693
4.8256,-0.0790168165139618
4.8257,-0.0490648640697979
4.8258,0.0391806697887542
4.8259,0.0398247977554998
4.826,-0.0387588160604544
4.8261,-0.0442339040564487
4.8262,-0.0561502721182926
4.8263,-0.0809492005644279
4.8264,-0.068388704284153
4.8265,-0.094797953005397
4.8266,-0.0783726884977367
4.8267,-0.1234616503707
4.8268,-0.0967303370780965
4.8269,-0.132801506950966
4.827,-0.108968769602985
4.8271,-0.07708443246618
4.8272,-0.133123570972185
4.8273,-0.116054177958318
4.8274,-0.113799729841129
4.8275,-0.0841698406545253
4.8276,-0.107680513542455
4.8277,-0.0387588160604544
4.8278,-0.0390808800596592
4.8279,-0.0197570402294439
4.828,-0.0239438721717693
4.8281,-0.00687448047801067
4.8282,0.0411130536882681
4.8283,0.0556059328662262
4.8284,0.0539956129634652
4.8285,0.045944013427604
4.8286,-0.0352161120737946
4.8287,-0.0261983201454637
4.8288,-0.0410132640563541
4.8289,-0.0274865761319316
4.829,0.0395027337721571
4.8291,0.0250098544587383
4.8292,0.0675223001016296
4.8293,0.0820151790668677
4.8294,0.0781504113538771
4.8295,0.0910329703663897
4.8296,0.0639795963371719
4.8297,0.0176023827613606
4.8298,-0.0332837280846081
4.8299,-0.0703210883199599
4.83,-0.0699990243138085
4.8301,-0.0703210883199599
4.8302,-0.0725755363650801
4.8303,-0.0738637923924854
4.8304,-0.0452000960578476
4.8305,-0.0629136161969985
4.8306,-0.0490648640697979
4.8307,-0.0245880001639131
4.8308,-0.0184687842494865
4.8309,-0.0439118400561232
4.831,-0.0561502721182926
4.8311,-0.0329616640866523
4.8312,-0.0687107682899374
4.8313,-0.143107555670381
4.8314,-0.180466982993768
4.8315,-0.185297943507479
4.8316,-0.15985488501967
4.8317,-0.231353101410255
4.8318,-0.152769476421319
4.8319,-0.126360226543547
4.832,-0.0951200170173222
4.8321,-0.107680513542455
4.8322,-0.0368264320666884
4.8323,0.0375703498708336
4.8324,0.0118052309749958
4.8325,-0.0471324800625498
4.8326,-0.0638798082108483
4.8327,-0.109290833618313
4.8328,-0.127648482622452
4.8329,-0.119918946168229
4.833,-0.161143141132832
4.8331,-0.203977657679911
4.8332,-0.17144919008697
4.8333,-0.17273744621238
4.8334,-0.148582644086755
4.8335,-0.111545281727798
4.8336,-0.088356672782897
4.8337,-0.116054177958318
4.8338,-0.141497235552452
4.8339,-0.0738637923924854
4.834,-0.0822374565995672
4.8341,-0.0899669928356718
4.8342,-0.0567944001244184
4.8343,-0.033605792082633
4.8344,-0.0232997441798972
4.8345,-0.000433200641977313
4.8346,0.0401468617387821
4.8347,0.024365726486363
4.8348,-0.0210452962104802
4.8349,-0.0564723361213196
4.835,-0.0848139686734457
4.8351,-0.109934961649203
4.8352,-0.147616452011541
4.8353,-0.116698305992511
4.8354,-0.0667783842563294
4.8355,-0.0745079204066316
4.8356,-0.0851360326830188
4.8357,-0.0419794560556459
4.8358,-0.00365384055671933
4.8359,-0.0242659361678072
4.836,0.0105169750196784
4.8361,0.0201788946598528
4.8362,0.024365726486363
4.8363,0.0221112785810906
4.8364,-0.00687448047801067
4.8365,-0.033605792082633
4.8366,-0.0651680642303331
4.8367,-0.0774064964739575
4.8368,-0.0625915521925273
4.8369,0.0230774705408666
4.837,0.0246877904725817
4.8371,0.0153479348468764
4.8372,0.0520632290782192
4.8373,0.0942536101058954
4.8374,0.157056084000372
4.8375,0.243047160850803
4.8376,0.226621899200392
4.8377,0.215993788668657
4.8378,0.236283817829856
4.8379,0.211806957235459
4.838,0.153835444358623
4.8381,0.0894226504946105
4.8382,0.0833034349694286
4.8383,0.111323000636524
4.8384,0.110356808723625
4.8385,0.130646838798258
4.8386,0.102305209431244
4.8387,0.114865704313185
4.8388,0.108424424896428
4.8389,0.137410182112475
4.839,0.101339017513954
4.8391,0.11100093666561
4.8392,0.0771842194243798
4.8393,0.0330614540925896
4.8394,0.00439775921794051
4.8395,0.00053299133117396
4.8396,-0.0245880001639131
4.8397,-0.0287748321194932
4.8398,0.00697427113728544
4.8399,0.0517411650971393
4.84,0.0150258708588404
4.8401,0.00246537527572287
4.8402,-0.0065524164855857
4.8403,-0.00139939261571455
4.8404,-0.0326396000887655
4.8405,-0.0184687842494865
4.8406,0.0153479348468764
4.8407,0.102949337375839
4.8408,0.0536735489827375
4.8409,0.0285525583023745
4.841,0.019212702698389
4.8411,0.0176023827613606
4.8412,-0.0197570402294439
4.8413,0.00149918330374035
4.8414,0.0179244467488919
4.8415,-0.0361823040693227
4.8416,-0.0761182404432929
4.8417,-0.075474112428406
4.8418,-0.0477766080646825
4.8419,-0.0229776801840629
4.842,-0.046166288059881
4.8421,-0.0490648640697979
4.8422,-0.0542178881016374
4.8423,-0.0783726884977367
4.8424,-0.0274865761319316
4.8425,-0.0162143362871497
4.8426,-0.00172145660709069
4.8427,-0.0493869280712541
4.8428,-0.100917169245095
4.8429,-0.106392257483174
4.843,-0.0596929761555474
4.8431,-0.139564851413644
4.8432,-0.175313958467323
4.8433,-0.184331751403168
4.8434,-0.139886915436574
4.8435,-0.0861022247121899
4.8436,-0.11573211394134
4.8437,-0.109934961649203
4.8438,-0.113799729841129
4.8439,-0.170482997993812
4.844,-0.173059510243947
4.8441,-0.135055955101204
4.8442,-0.0803050725473071
4.8443,-0.118308626079379
4.8444,-0.144073747742126
4.8445,-0.0397250080582781
4.8446,0.000210927340188571
4.8447,-0.0110613123855443
4.8448,-0.0377926240632582
4.8449,-0.0313513440979077
4.845,-0.033605792082633
4.8451,-0.0555061441124541
4.8452,-0.0429456480555685
4.8453,-0.0574385281308318
4.8454,0.00053299133117396
4.8455,-0.00397590454855312
4.8456,-0.0368264320666884
4.8457,-0.03424992007889
4.8458,-0.0284527681225001
4.8459,-0.0242659361678072
4.846,-0.129580866743224
4.8461,-0.144395811766205
4.8462,-0.0973744651029428
4.8463,-0.0873904807521407
4.8464,-0.121851330277472
4.8465,-0.161143141132832
4.8466,-0.0902890568464542
4.8467,-0.143107555670381
4.8468,-0.0699990243138085
4.8469,0.00182124729446601
4.847,-0.01009512040589
4.8471,-0.105104001425138
4.8472,-0.108324641572564
4.8473,-0.0651680642303331
4.8474,-0.00623035249322661
4.8475,-0.0767623684584767
4.8476,-0.0526075680897267
4.8477,-0.0245880001639131
4.8478,-0.0271645121352121
4.8479,-0.038114688062254
4.848,-0.0832036486267085
4.8481,-0.08191539259067
4.8482,-0.0861022247121899
4.8483,-0.0748299844138157
4.8484,-0.068388704284153
4.8485,-0.0619474241838024
4.8486,-0.0931876329469169
4.8487,-0.146972323961813
4.8488,-0.125716098504575
4.8489,-0.115087985907621
4.849,-0.0629136161969985
4.8491,-0.043589776055868
4.8492,-0.0171805282706055
4.8493,0.0378924138545386
4.8494,0.122273175617138
4.8495,0.140952885744692
4.8496,0.127104135148817
4.8497,0.0382144778381832
4.8498,-0.0146040163160629
4.8499,-0.117986562061847
4.85,-0.146972323961813
4.8501,-0.172415382180899
4.8502,-0.113155601808356
4.8503,-0.185942071577456
4.8504,-0.18819651982513
4.8505,-0.195926056707004
4.8506,-0.155990116688266
4.8507,-0.184975879472621
4.8508,-0.197214312858931
4.8509,-0.182399367196902
4.851,-0.117342434027021
4.8511,-0.131513250866899
4.8512,-0.114121793857634
4.8513,-0.0764403044508477
4.8514,-0.0480986720658551
4.8515,-0.0625915521925273
4.8516,-0.00365384055671933
4.8517,-0.0158922722927985
4.8518,-0.00172145660709069
4.8519,-0.0229776801840629
4.852,-0.0474545440635808
4.8521,-0.0783726884977367
4.8522,-0.0803050725473071
4.8523,-0.103171617340415
4.8524,-0.131835314887794
4.8525,-0.108646705587735
4.8526,-0.134089763036329
4.8527,-0.120241010186237
4.8528,-0.0890008008037796
4.8529,-0.0377926240632582
4.853,-0.0522855040875588
4.8531,-0.0410132640563541
4.8532,-0.0603371041632585
4.8533,-0.102849553326565
4.8534,-0.217504347440758
4.8535,-0.24262534313998
4.8536,-0.277086197151001
4.8537,-0.266780147237404
4.8538,-0.26291537854552
4.8539,-0.189806840004671
4.854,-0.0542178881016374
4.8541,-0.0432677120556831
4.8542,-0.0326396000887655
4.8543,-0.0200791042246017
4.8544,-0.035860240070744
4.8545,-0.0513193120814833
4.8546,-0.0365043680679708
4.8547,-0.0394029440589338
4.8548,-0.0471324800625498
4.8549,0.00471982320808405
4.855,0.0304849422139393
4.8551,0.0552838688857909
4.8552,-0.0146040163160629
4.8553,-0.0548620161069024
4.8554,-0.0526075680897267
4.8555,-0.0538958240991123
4.8556,0.0124493589522725
4.8557,-0.0120275043657961
4.8558,-0.0310292801003654
4.8559,-0.0123495683593462
4.856,-0.075474112428406
4.8561,-0.134733891079498
4.8562,-0.13602214716681
4.8563,-0.0687107682899374
4.8564,-0.0290968961165548
4.8565,-0.0571164641275892
4.8566,-0.0709652163324832
4.8567,-0.0500310560743794
4.8568,-0.0403691360571763
4.8569,-0.127004354582839
4.857,-0.12410577840855
4.8571,-0.0593709121518002
4.8572,-0.0703210883199599
4.8573,-0.0983406571407881
4.8574,-0.152447412395084
4.8575,-0.117020370009727
4.8576,-0.113477665824703
4.8577,-0.068388704284153
4.8578,-0.0400470720576922
4.8579,-0.00945099241978527
4.858,0.0185685747237661
4.8581,0.0214671506075946
4.8582,0.0291966862731422
4.8583,0.042079245637213
4.8584,0.0575383167476138
4.8585,0.098440441759228
4.8586,0.124205559431162
4.8587,0.251420823616798
4.8588,0.280084515218733
4.8589,0.277508003624632
4.859,0.262048934016763
4.8591,0.273643236229673
4.8592,0.255929718942544
4.8593,0.227588091064852
4.8594,0.164785619121809
4.8595,0.119374599892702
4.8596,0.15093686867707
4.8597,0.0919991622888077
4.8598,0.0121272949636659
4.8599,0.0266201743885914
4.86,0.0549618049052972
4.8601,0.0533514850019512
4.8602,0.0504529091722311
4.8603,0.0491646532463791
4.8604,0.122917303555347
4.8605,0.128392391022035
4.8606,0.0965080579203509
4.8607,0.130324774830374
4.8608,0.115831896223923
4.8609,0.0971521858668566
4.861,0.0723532597693441
4.8611,0.100694889568831
4.8612,0.122917303555347
4.8613,0.117120152104192
4.8614,0.0939315461321872
4.8615,0.0427233736028763
4.8616,-0.046166288059881
4.8617,0.0440116295334842
4.8618,0.0240436625000822
4.8619,-0.0416573920558119
4.862,-0.00204352059853208
4.8621,0.0485205252830985
4.8622,0.092321226262839
4.8623,0.0762180274943807
4.8624,0.0884564585708917
4.8625,0.0804048591874245
4.8626,-0.0252321281563291
4.8627,-0.0970524010904813
4.8628,-0.101561297271942
4.8629,-0.0638798082108483
4.863,-0.0642018722156103
4.8631,0.0224333425677449
4.8632,0.00633014315783527
4.8633,0.00504188719816311
4.8634,0.00182124729446601
4.8635,-0.0361823040693227
4.8636,-0.0323175360909476
4.8637,0.00504188719816311
4.8638,-0.0735417283855233
4.8639,-0.146972323961813
4.864,-0.1234616503707
4.8641,-0.075474112428406
4.8642,-0.0748299844138157
4.8643,-0.0725755363650801
4.8644,-0.00977305641280454
4.8645,0.0665561081665537
4.8646,0.0652678522523204
4.8647,0.0784724753302648
4.8648,0.0279084303313604
4.8649,0.0407909897051662
4.865,-0.0142819523220461
4.8651,0.00214331128512683
4.8652,0.00794046310597919
4.8653,0.00697427113728544
4.8654,0.064301660316045
4.8655,0.0140596788943529
4.8656,-0.0207232322151198
4.8657,-0.0368264320666884
4.8658,-0.0406912000567302
4.8659,-0.0767623684584767
4.866,-0.0294189601136849
4.8661,-0.00945099241978527
4.8662,-0.0139598883280961
4.8663,-0.041335328056048
4.8664,-0.0590488481481252
4.8665,-0.0255541921526391
4.8666,-0.0503531200760487
4.8667,-0.0896449288249653
4.8668,-0.12474990644672
4.8669,-0.105426065439531
4.867,-0.144073747742126
4.8671,-0.180144918960216
4.8672,-0.119274818132451
4.8673,-0.0609812321712589
4.8674,-0.0613032961753676
4.8675,-0.164363781421652
4.8676,-0.161465205161333
4.8677,-0.197214312858931
4.8678,-0.217504347440758
4.8679,-0.256152033368182
4.868,-0.260016802035747
4.8681,-0.232319293554036
4.8682,-0.184009687368573
4.8683,-0.0857801607023908
4.8684,-0.0332837280846081
4.8685,-0.0390808800596592
4.8686,-0.0567944001244184
4.8687,0.0153479348468764
4.8688,0.0166361907983886
4.8689,-0.00333177656495107
4.869,0.0253319184448329
4.8691,0.0378924138545386
4.8692,-0.020401168219827
4.8693,-0.0841698406545253
4.8694,-0.1195968821503
4.8695,-0.111223217711922
4.8696,-0.146972323961813
4.8697,-0.162431397247344
4.8698,-0.122495458314524
4.8699,-0.137954531300222
4.87,-0.109612897633719
4.8701,-0.144073747742126
4.8702,-0.104781937410824
4.8703,-0.0638798082108483
4.8704,-0.0632356802015425
4.8705,-0.0690328322957951
4.8706,-0.0828815846175864
4.8707,-0.0564723361213196
4.8708,-0.103815745368346
4.8709,-0.111545281727798
4.871,-0.0896449288249653
4.8711,-0.0815933285818478
4.8712,-0.130547058804698
4.8713,-0.115087985907621
4.8714,-0.0319954720931988
4.8715,0.00568601517812793
4.8716,0.00858459108478779
4.8717,-0.0487428000684128
4.8718,-0.0567944001244184
4.8719,-0.0529296320919659
4.872,-0.0880346087725693
4.8721,-0.0938317609700799
4.8722,-0.113799729841129
4.8723,-0.130224994784126
4.8724,-0.149226772137312
4.8725,-0.183365559299643
4.8726,-0.205265913840757
4.8727,-0.235217869990402
4.8728,-0.219114667661045
4.8729,-0.201079081323245
4.873,-0.138598659345346
4.8731,-0.0841698406545253
4.8732,-0.0806271365558301
4.8733,-0.0938317609700799
4.8734,-0.136666275210955
4.8735,-0.206876234043833
4.8736,-0.239726766684234
4.8737,-0.241659150987218
4.8738,-0.234895805941544
4.8739,-0.236828190236093
4.874,-0.271611108121939
4.8741,-0.229742781172479
4.8742,-0.152769476421319
4.8743,-0.129902930763635
4.8744,-0.0403691360571763
4.8745,-0.00107732862440364
4.8746,-0.0658121922405127
4.8747,-0.094797953005397
4.8748,-0.0745079204066316
4.8749,-0.0236218081757993
4.875,-0.0390808800596592
4.8751,-0.0410132640563541
4.8752,0.0176023827613606
4.8753,0.0269422383743763
4.8754,-0.026842448138561
4.8755,-0.0613032961753676
4.8756,-0.0490648640697979
4.8757,-0.0973744651029428
4.8758,-0.136344211188842
4.8759,-0.0935096969584603
4.876,-0.0432677120556831
4.8761,-0.0574385281308318
4.8762,-0.0667783842563294
4.8763,-0.100917169245095
4.8764,-0.0832036486267085
4.8765,-0.0976965291154811
4.8766,-0.1195968821503
4.8767,-0.117986562061847
4.8768,-0.0722534723584133
4.8769,-0.0474545440635808
4.877,-0.0274865761319316
4.8771,0.068488492036193
4.8772,0.115187768283482
4.8773,0.0849137548463917
4.8774,0.104237593264399
4.8775,0.0968301218936305
4.8776,0.102305209431244
4.8777,-0.00590828850093328
4.8778,-0.0484207360670985
4.8779,-0.0625915521925273
4.878,-0.0671004482617478
4.8781,-0.0352161120737946
4.8782,-0.0326396000887655
4.8783,-0.0928655689354499
4.8784,-0.0857801607023908
4.8785,-0.0999509772054017
4.8786,-0.128292610662387
4.8787,-0.205265913840757
4.8788,-0.15953282099159
4.8789,-0.180789047027406
4.879,-0.199468761128223
4.8791,-0.237150254285512
4.8792,-0.237150254285512
4.8793,-0.243913599344982
4.8794,-0.264847762889717
4.8795,-0.128292610662387
4.8796,-0.0129936963466463
4.8797,0.0649457882736192
4.8798,0.0652678522523204
4.8799,0.113255384460929
4.88,0.178634369482916
4.8801,0.192161055804351
4.8802,0.145139717302541
4.8803,0.175091665909958
4.8804,0.128392391022035
4.8805,0.141597013677196
4.8806,0.116798088134201
4.8807,0.0971521858668566
4.8808,0.112611256519667
4.8809,0.0965080579203509
4.881,0.0739635796557583
4.8811,0.124849687368768
4.8812,0.127104135148817
4.8813,0.113255384460929
4.8814,0.113899512401985
4.8815,0.0961859939470179
4.8816,0.0594707006269087
4.8817,0.0182465107363605
4.8818,-0.00816273644836968
4.8819,-0.0577605921341464
4.882,-0.0377926240632582
4.8821,-0.0200791042246017
4.8822,-0.0271645121352121
4.8823,-0.043589776055868
4.8824,-0.0139598883280961
4.8825,0.0188906387111089
4.8826,-0.0120275043657961
4.8827,-0.0777285604818096
4.8828,-0.0935096969584603
4.8829,-0.0748299844138157
4.883,-0.0555061441124541
4.8831,-0.03424992007889
4.8832,-0.0564723361213196
4.8833,-0.0458442240591326
4.8834,-0.0480986720658551
4.8835,-0.0613032961753676
4.8836,-0.113477665824703
4.8837,-0.129580866743224
4.8838,-0.0803050725473071
4.8839,-0.0596929761555474
4.884,-0.0500310560743794
4.8841,-0.00526416051654391
4.8842,0.0308070061989851
4.8843,0.0275863663457608
4.8844,0.0543176769441344
4.8845,0.0320952621385549
4.8846,0.0739635796557583
4.8847,0.100050761623495
4.8848,0.0948977380531507
4.8849,0.0607589565452801
4.885,0.0475543333377332
4.8851,0.0700988119259964
4.8852,0.0630134044002083
4.8853,0.0446557574984294
4.8854,0.0221112785810906
4.8855,-0.058082656137533
4.8856,-0.14600613188784
4.8857,-0.120885138222492
4.8858,-0.1234616503707
4.8859,-0.117664498044394
4.886,-0.141819299575873
4.8861,-0.099628913192325
4.8862,-0.115410049924441
4.8863,-0.123783714389585
4.8864,-0.0993068491793253
4.8865,-0.105426065439531
4.8866,-0.10123923325848
4.8867,-0.118952754114681
4.8868,-0.15985488501967
4.8869,-0.15341360447404
4.887,-0.209452746373435
4.8871,-0.240370894784853
4.8872,-0.191095096149885
4.8873,-0.1933495444074
4.8874,-0.15953282099159
4.8875,-0.122817522333169
4.8876,-0.111223217711922
4.8877,-0.180144918960216
4.8878,-0.259372673923524
4.8879,-0.290934951881272
4.888,-0.269034595647459
4.8881,-0.264847762889717
4.8882,-0.270000787824657
4.8883,-0.181111111061132
4.8884,-0.125716098504575
4.8885,-0.131191186846084
4.8886,-0.188840647896683
4.8887,-0.177246342662147
4.8888,-0.156312180715421
4.8889,-0.166940293658814
4.889,-0.139564851413644
4.8891,-0.146328195912415
4.8892,-0.152447412395084
4.8893,-0.153091540447638
4.8894,-0.122817522333169
4.8895,-0.100917169245095
4.8896,-0.0625915521925273
4.8897,-0.0638798082108483
4.8898,-0.0693548963017262
4.8899,-0.0957641450414022
4.89,-0.109290833618313
4.8901,-0.102205425299099
4.8902,-0.102527489312794
4.8903,-0.0848139686734457
4.8904,-0.0886787367933005
4.8905,-0.105426065439531
4.8906,-0.0606591681672225
4.8907,-0.012671632352963
4.8908,0.0246877904725817
4.8909,-0.0538958240991123
4.891,-0.12410577840855
4.8911,-0.123783714389585
4.8912,-0.161787269189919
4.8913,-0.151481220316878
4.8914,-0.0976965291154811
4.8915,-0.0532516960942766
4.8916,-0.134411827057873
4.8917,-0.164685845451
4.8918,-0.12539403448521
4.8919,-0.064523936220445
4.892,-0.126682290563152
4.8921,-0.176280150564347
4.8922,-0.240370894784853
4.8923,-0.188518583860863
4.8924,-0.231675165458089
4.8925,-0.206232105962333
4.8926,-0.158244564880114
4.8927,-0.158244564880114
4.8928,-0.189162711932591
4.8929,-0.184331751403168
4.893,-0.132801506950966
4.8931,-0.129902930763635
4.8932,-0.13892072336803
4.8933,-0.111867345743753
4.8934,-0.078694752505812
4.8935,-0.0706431523261848
4.8936,-0.0352161120737946
4.8937,-0.0107392483922599
4.8938,0.011483166986262
4.8939,-0.0841698406545253
4.894,-0.0877125447623172
4.8941,-0.0522855040875588
4.8942,0.00343156724712257
4.8943,0.0156699988348492
4.8944,0.0253319184448329
4.8945,-0.0355381760722346
4.8946,-0.130224994784126
4.8947,-0.151481220316878
4.8948,-0.11573211394134
4.8949,-0.063557744206159
4.895,-0.113799729841129
4.8951,-0.134733891079498
4.8952,-0.112189409759786
4.8953,-0.0915773128903435
4.8954,-0.0967303370780965
4.8955,-0.0194349762343535
4.8956,0.0462660774097488
4.8957,0.0868461386969383
4.8958,0.0543176769441344
4.8959,0.068488492036193
4.896,0.0417571816542914
4.8961,0.0224333425677449
4.8962,0.0446557574984294
4.8963,0.0758959635176026
4.8964,0.0153479348468764
4.8965,-0.01009512040589
4.8966,-0.0522855040875588
4.8967,-0.0162143362871497
4.8968,-0.0155702082985142
4.8969,-0.0374705600643321
4.897,-0.0693548963017262
4.8971,-0.0216894242014037
4.8972,-0.00816273644836968
4.8973,-0.0368264320666884
4.8974,-0.0480986720658551
4.8975,-0.0574385281308318
4.8976,-0.0332837280846081
4.8977,-0.0873904807521407
4.8978,-0.0764403044508477
4.8979,-0.0194349762343535
4.898,-0.0065524164855857
4.8981,0.0356379659673309
4.8982,0.0755738995407686
4.8983,0.0820151790668677
4.8984,0.0742856436328725
4.8985,0.0143817428825787
4.8986,0.0395027337721571
4.8987,0.0356379659673309
4.8988,0.0884564585708917
4.8989,0.0862020107469749
4.899,0.0481984613013693
4.8991,0.0948977380531507
4.8992,0.0575383167476138
4.8993,0.00182124729446601
4.8994,0.0256539824308654
4.8995,0.0697767479481491
4.8996,0.0636575323582414
4.8997,0.0765400914711029
4.8998,0.16704006686063
4.8999,0.166718002898077
4.9,0.189181153801657
4.9001,0.126378679907181
4.9002,0.110275481155162
4.9003,0.103834201615669
4.9004,0.0603555641181835
4.9005,0.0564907962876482
4.9006,0.0954605381805388
4.9007,0.118971208498224
4.9008,0.171467635713876
4.9009,0.192079729475283
4.901,0.19626656099731
4.9011,0.174366211410792
4.9012,0.181451618653631
4.9013,0.149567285875417
4.9014,0.114784376819544
4.9015,0.0606776281036597
4.9016,0.0320139331504234
4.9017,0.00367230167878513
4.9018,-0.0662155873395029
4.9019,-0.0423828506053464
4.902,0.0191313734546389
4.9021,-0.00405723426803747
4.9022,-0.00502342626419026
4.9023,0.0365228290192257
4.9024,0.0648644599092577
4.9025,0.071949867556785
4.9026,0.0896633865488991
4.9027,0.0571349242600235
4.9028,0.0497274525626458
4.9029,0.0445744287535578
4.903,-0.00309104227250934
4.9031,-0.0488241307631427
4.9032,-0.0108205782542833
4.9033,0.0745263794213599
4.9034,0.1608395247915
4.9035,0.136684727037693
4.9036,0.149567285875417
4.9037,0.203996096094845
4.9038,0.226218509359736
4.9039,0.180485426758231
4.904,0.127022807854436
4.9041,0.137006791009649
4.9042,0.128311063748303
4.9043,0.10125768979357
4.9044,0.120581528372177
4.9045,0.10125768979357
4.9046,0.0384552129591205
4.9047,0.0136562855517987
4.9048,0.0249285253307837
4.9049,0.0448964927421008
4.905,0.0432861727987497
4.9051,0.0101135816043183
4.9052,0.00012959770808646
4.9053,0.0339463170957512
4.9054,0.0275050372688679
4.9055,0.00496055766607309
4.9056,-0.0256355223328611
4.9057,0.0593893721613847
4.9058,0.106732777411216
4.9059,0.0977149860322497
4.906,0.0758146353522072
4.9061,0.0977149860322497
4.9062,0.0155886695197173
4.9063,0.0143004135413736
4.9064,-0.017583922271496
4.9065,-0.0108205782542833
4.9066,-0.0172618582699689
4.9067,-0.00888819425506888
4.9068,-0.0446372986571915
4.9069,-0.0913365805694143
4.907,-0.088115940384952
4.9071,-0.0745892516965923
4.9072,-0.058163987045169
4.9073,-0.125153302996104
4.9074,-0.113558998062063
4.9075,-0.0520447708532401
4.9076,-0.0436711066345272
4.9077,-0.0256355223328611
4.9078,-0.00888819425506888
4.9079,-0.0237031383140522
4.908,-0.0427049146125305
4.9081,-0.158003834239557
4.9082,-0.130628391474899
4.9083,-0.0945572207618672
4.9084,-0.197939775418564
4.9085,-0.193108814717732
4.9086,-0.152528745636566
4.9087,-0.143510952698293
4.9088,-0.160258282495222
4.9089,-0.160902410569063
4.909,-0.17120845979874
4.9091,-0.13771380013085
4.9092,-0.111626613916843
4.9093,-0.0807084679908018
4.9094,-0.0430269786197886
4.9095,-0.00309104227250934
4.9096,0.00946945361298876
4.9097,0.0294374212196744
4.9098,0.0706616116230525
4.9099,-0.0130750262565624
4.91,-0.0404504665637949
4.9101,-0.0774878278324334
4.9102,-0.0739451236672632
4.9103,-0.123220918832922
4.9104,-0.227891732234461
4.9105,-0.279744046559319
4.9106,-0.199872159704731
4.9107,-0.194397070902588
4.9108,-0.192786750671749
4.9109,-0.102930885299918
4.911,-0.0675038433910398
4.9111,-0.0855394282431092
4.9112,-0.0848953002084414
4.9113,-0.047213810720901
4.9114,-0.0410945945773498
4.9115,-0.0417387225912002
4.9116,-0.0256355223328611
4.9117,-0.0066337462591692
4.9118,-0.0282120343619733
4.9119,-0.0398063385505351
4.912,-0.0356195064715188
4.9121,-0.0559095389712841
4.9122,-0.127407751190305
4.9123,-0.103252949321706
4.9124,-0.0481800027460219
4.9125,-0.0542992189207792
4.9126,-0.05751985902368
4.9127,-0.0381960185186747
4.9128,0.011079773590805
4.9129,0.0307256771855707
4.913,0.015266605525232
4.9131,0.00850326162548594
4.9132,0.00818119762951594
4.9133,0.00592674965582156
4.9134,-0.0504344508072541
4.9135,-0.047213810720901
4.9136,-0.0336871224392274
4.9137,0.00979151760868742
4.9138,0.0220299493953952
4.9139,-0.0504344508072541
4.914,-0.0369077624945099
4.9141,0.000451661705766451
4.9142,-0.0179059862730942
4.9143,0.0123680295718413
4.9144,0.071949867556785
4.9145,0.053914284395659
4.9146,0.0313698051681273
4.9147,-0.00180278627944171
4.9148,0.0626100120152246
4.9149,-0.00180278627944171
4.915,-0.0562316029816118
4.9151,-0.00437929826668562
4.9152,0.0294374212196744
4.9153,0.0220299493953952
4.9154,0.0661527158473598
4.9155,0.0912737064484564
4.9156,0.0581011162181212
4.9157,0.035878701038745
4.9158,0.0204196294289729
4.9159,-0.0182280502747634
4.916,-0.0662155873395029
4.9161,-0.148341913192482
4.9162,-0.164445114981505
4.9163,-0.188277854037634
4.9164,-0.0662155873395029
4.9165,-0.00888819425506888
4.9166,0.00753706963737209
4.9167,0.0880530666478884
4.9168,0.0973929220536056
4.9169,0.124768360038102
4.917,0.145702518232768
4.9171,0.189181153801657
4.9172,0.202707840247046
4.9173,0.140227430726332
4.9174,0.115750568746216
4.9175,0.0954605381805388
4.9176,0.0970708580749044
4.9177,0.0494053885750514
4.9178,0.0207416934223901
4.9179,0.011079773590805
4.918,-0.0104985142542389
4.9181,0.0577790522321506
4.9182,0.102223881727282
4.9183,0.0867648107260303
4.9184,0.102223881727282
4.9185,0.0993253059246132
4.9186,0.0497274525626458
4.9187,0.0584231802040299
4.9188,0.0667968438160449
4.9189,0.0123680295718413
4.919,0.0468288766720264
4.9191,0.0516598364868915
4.9192,0.0146224775360602
4.9193,0.00206198169313417
4.9194,-0.0465696827045268
4.9195,-0.0130750262565624
4.9196,0.038133148969299
4.9197,0.0284712292445659
4.9198,-0.0320768024143251
4.9199,-0.0410945945773498
4.92,-0.0253134583295466
4.9201,0.00850326162548594
4.9202,-0.00148072228134774
4.9203,-0.0127529622560257
4.9204,0.00141785369839335
4.9205,0.0139783495466198
4.9206,0.068407163736693
4.9207,0.040709660886073
4.9208,0.105766585479873
4.9209,0.0829000429548317
4.921,0.0146224775360602
4.9211,-0.0124308982555594
4.9212,-0.0314326744048738
4.9213,-0.0298223543825172
4.9214,-0.0179059862730942
4.9215,0.00560468565930698
4.9216,0.0919178344078735
4.9217,0.165026356373349
4.9218,0.170501443814036
4.9219,0.188214961909619
4.922,0.17758685106948
4.9221,0.15987333288681
4.9222,0.116716760672394
4.9223,0.130887575533473
4.9224,0.161161588759631
4.9225,0.168569060013047
4.9226,0.16953525191376
4.9227,0.177264787103826
4.9228,0.15761888510746
4.9229,0.155364437325661
4.923,0.120903592346804
4.9231,0.0841882988795044
4.9232,0.10963135320222
4.9233,0.0771028912820977
4.9234,0.0725939955232895
4.9235,0.101901817749434
4.9236,0.122835976193427
4.9237,0.0722719315400674
4.9238,0.081611787029216
4.9239,0.0964267301173302
4.924,0.0935281543054044
4.9241,0.0349125090675394
4.9242,0.0365228290192257
4.9243,0.048117132624044
4.9244,0.0487612605996738
4.9245,0.0310477411768816
4.9246,0.00270610968760028
4.9247,0.00818119762951594
4.9248,0.0664747798317328
4.9249,0.0951384742014936
4.925,0.14248187852491
4.9251,0.147634902055013
4.9252,0.198843072699362
4.9253,0.14699077411447
4.9254,0.103512137638105
4.9255,0.068407163736693
4.9256,0.0355566370484078
4.9257,0.0143004135413736
4.9258,0.0268609092847413
4.9259,0.00753706963737209
4.926,0.00173991769579811
4.9261,-0.0262796503397064
4.9262,-0.0523668348626627
4.9263,-0.103252949321706
4.9264,-0.125153302996104
4.9265,-0.199550095656804
4.9266,-0.241418422680617
4.9267,-0.216297426273115
4.9268,-0.190854366397781
4.9269,-0.170886395758932
4.927,-0.16895401152196
4.9271,-0.139002056254547
4.9272,-0.0823187880729322
4.9273,-0.088115940384952
4.9274,-0.103252949321706
4.9275,-0.0736230596527153
4.9276,-0.0323988664191598
4.9277,0.0155886695197173
4.9278,-0.0211266262929913
4.9279,-0.0172618582699689
4.928,-0.0201604342862736
4.9281,-0.0539771549109047
4.9282,-0.110338357821678
4.9283,-0.122898854806018
4.9284,-0.10454120540967
4.9285,-0.0710465475391294
4.9286,-0.0381960185186747
4.9287,-0.0224148823029489
4.9288,-0.0755554437411702
4.9289,-0.0987440530240656
4.929,-0.0945572207618672
4.9291,-0.128051879246549
4.9292,-0.139968248348219
4.9293,-0.0913365805694143
4.9294,-0.0311106104002572
4.9295,-0.0691141634571946
4.9296,-0.0552654109508554
4.9297,0.0262167813003519
4.9298,0.0143004135413736
4.9299,-0.031754738409563
4.93,-0.0146853462603043
4.9301,0.0207416934223901
4.9302,-0.0101764502542647
4.9303,-0.0436711066345272
4.9304,-0.0610625631456317
4.9305,-0.047213810720901
4.9306,-0.00888819425506888
4.9307,0.0130121575619547
4.9308,-0.000514530287480247
4.9309,0.0217078854022434
4.931,-0.0510785788254233
4.9311,-0.0745892516965923
4.9312,-0.124831238968698
4.9313,-0.142866824633869
4.9314,-0.0819967240563486
4.9315,-0.107439781612359
4.9316,-0.148663977226121
4.9317,-0.111948677940841
4.9318,-0.0858614922605619
4.9319,-0.11420312611113
4.932,-0.128696007303129
4.9321,-0.0330429944290478
4.9322,0.00238404569040154
4.9323,-0.0143632822594147
4.9324,0.0130121575619547
4.9325,0.0307256771855707
4.9326,0.037489020989463
4.9327,0.0249285253307837
4.9328,-0.00373517026945876
4.9329,-0.0423828506053464
4.933,-0.0642832032645032
4.9331,-0.108728037704569
4.9332,-0.0765216357864502
4.9333,-0.00405723426803747
4.9334,-0.00631168226003415
4.9335,-0.0507565148163012
4.9336,-0.0639611392522718
4.9337,-0.0604184351227738
4.9338,-0.100032309107485
4.9339,-0.11742376636143
4.934,-0.109694229774588
4.9341,-0.0807084679908018
4.9342,-0.0790981479106372
4.9343,-0.0620287551804906
4.9344,-0.0942351567422613
4.9345,-0.0491461947718152
4.9346,-0.0858614922605619
4.9347,-0.160258282495222
4.9348,-0.158325898275817
4.9349,-0.170242267679584
4.935,-0.220162194913137
4.9351,-0.244639063288397
4.9352,-0.184735149551997
4.9353,-0.181836573162863
4.9354,-0.218551874644796
4.9355,-0.131916647591104
4.9356,-0.0420607865982363
4.9357,-0.0980999249828407
4.9358,-0.116779638310707
4.9359,-0.0990661170447991
4.936,-0.158970026348599
4.9361,-0.187955789993028
4.9362,-0.172818779999125
4.9363,-0.141578568506054
4.9364,-0.1557493859882
4.9365,-0.163800986905718
4.9366,-0.0987440530240656
4.9367,-0.0565536669920153
4.9368,0.0223520133884807
4.9369,0.0207416934223901
4.937,0.0323359971414738
4.9371,0.0107577095953771
4.9372,0.0249285253307837
4.9373,0.0635762039701777
4.9374,0.11252992898871
4.9375,0.177908915035086
4.9376,0.173400019512253
4.9377,0.147312838084767
4.9378,0.149245221905477
4.9379,0.182417810548607
4.938,0.212047695127604
4.9381,0.212369759088346
4.9382,0.135396471149343
4.9383,0.112207865012655
4.9384,0.0693733556883533
4.9385,-0.0475358747292
4.9386,-0.095523412821167
4.9387,-0.0410945945773498
4.9388,0.00979151760868742
4.9389,0.059711436147046
4.939,0.0687292277206404
4.9391,0.0977149860322497
4.9392,0.0651865238938748
4.9393,0.0780690832288893
4.9394,0.0835441709172858
4.9395,0.0764587633172719
4.9396,0.114784376819544
4.9397,0.132819959370116
4.9398,0.0964267301173302
4.9399,0.114462312843876
4.94,0.137328854981552
4.9401,0.073560187472595
4.9402,0.104478329570629
4.9403,0.115106440795156
4.9404,0.178875106931621
4.9405,0.165348420340838
4.9406,0.129599319641315
4.9407,0.165026356373349
4.9408,0.134108215260152
4.9409,0.0738822514555766
4.941,0.0426420448209636
4.9411,-0.00502342626419026
4.9412,-0.0794202119265131
4.9413,-0.12708568716231
4.9414,-0.0823187880729322
4.9415,0.018809309460889
4.9416,0.0323359971414738
4.9417,0.0506936445250513
4.9418,0.108665161272388
4.9419,0.163416036535162
4.942,0.101901817749434
4.9421,0.12186978427036
4.9422,0.0932060903260137
4.9423,0.0919178344078735
4.9424,-0.0211266262929913
4.9425,-0.0398063385505351
4.9426,-0.0333650584341012
4.9427,0.0365228290192257
4.9428,0.0426420448209636
4.9429,0.0500495165501772
4.943,0.0410317248753813
4.9431,0.0696954196721188
4.9432,0.0155886695197173
4.9433,-0.0668597153651174
4.9434,-0.0588081150669617
4.9435,-0.0346533144550442
4.9436,-0.0710465475391294
4.9437,-0.106795653566745
4.9438,-0.139646184316909
4.9439,-0.106795653566745
4.944,-0.113558998062063
4.9441,-0.105829461498937
4.9442,-0.0852173642257357
4.9443,-0.00309104227250934
4.9444,0.0133342215569104
4.9445,0.0545584123690302
4.9446,0.106410713434158
4.9447,0.125090424012025
4.9448,0.207538799672641
4.9449,0.247474730557574
4.945,0.229761212905024
4.9451,0.256492521316614
4.9452,0.267442695769696
4.9453,0.271307463213505
4.9454,0.206572607788317
4.9455,0.180163362793004
4.9456,0.13346408731524
4.9457,0.134108215260152
4.9458,0.0751705073869033
4.9459,0.0516598364868915
4.946,0.0403875968967008
4.9461,-0.0188721782783153
4.9462,-0.0571977950130493
4.9463,-0.0462476186964515
4.9464,-0.0327209304240674
4.9465,-0.0726568676095384
4.9466,-0.125475367023595
4.9467,-0.109694229774588
4.9468,-0.0707244835252802
4.9469,-0.111948677940841
4.947,-0.164123050943567
4.9471,-0.128373943274797
4.9472,-0.124831238968698
4.9473,-0.133526967738268
4.9474,-0.0987440530240656
4.9475,-0.119034086489691
4.9476,-0.0823187880729322
4.9477,-0.0607404991341647
4.9478,-0.0819967240563486
4.9479,-0.0681479714172703
4.948,-0.0378739545125233
4.9481,-0.0150074102612646
4.9482,-0.0259575863362478
4.9483,-0.0945572207618672
4.9484,-0.140612376411095
4.9485,-0.124187110914136
4.9486,-0.102286757256587
4.9487,-0.102608821278212
4.9488,-0.062994947216037
4.9489,-0.0507565148163012
4.949,-0.0633170112280387
4.9491,-0.0259575863362478
4.9492,-0.0272458423505149
4.9493,0.0159107335141355
4.9494,0.043930300776281
4.9495,0.0674409717844865
4.9496,0.071949867556785
4.9497,-0.0137191542578474
4.9498,-0.0407725305705354
4.9499,-0.0259575863362478
4.95,-0.00341310627094937
4.9501,-0.000514530287480247
4.9502,-0.0333650584341012
4.9503,-0.00212485027760481
4.9504,-0.0266017143432371
4.9505,-0.0691141634571946
4.9506,-0.0868276843133957
4.9507,-0.139968248348219
4.9508,-0.15381700177617
4.9509,-0.128373943274797
4.951,-0.0968116689013593
4.9511,-0.0961675408611022
4.9512,-0.124831238968698
4.9513,-0.111304549892928
4.9514,-0.160902410569063
4.9515,-0.197939775418564
4.9516,-0.166699563249553
4.9517,-0.0865056202957051
4.9518,-0.050112386798282
4.9519,-0.031754738409563
4.952,-0.00888819425506888
4.9521,-0.0224148823029489
4.9522,-0.0262796503397064
4.9523,-0.0475358747292
4.9524,-0.0964896048811905
4.9525,-0.0610625631456317
4.9526,-0.0307885463957133
4.9527,-0.0311106104002572
4.9528,-0.0311106104002572
4.9529,-0.0214486902953734
4.953,-0.0439931706420077
4.9531,-0.0678259074041165
4.9532,-0.1009985011709
4.9533,-0.132882839679148
4.9534,-0.173462908079907
4.9535,-0.183446893378139
4.9536,-0.139646184316909
4.9537,-0.0327209304240674
4.9538,0.00367230167878513
4.9539,-0.000514530287480247
4.954,0.048117132624044
4.9541,0.0445744287535578
4.9542,-0.0356195064715188
4.9543,-0.0285340983659373
4.9544,0.0226740773815
4.9545,0.016554861502771
4.9546,-0.0272458423505149
4.9547,-0.0198383702841771
4.9548,-0.047213810720901
4.9549,-0.104219141387557
4.955,-0.0871497483311656
4.9551,-0.0253134583295466
4.9552,-0.0443152346495624
4.9553,-0.0790981479106372
4.9554,-0.112914870013327
4.9555,-0.138357928192527
4.9556,-0.146409528992471
4.9557,-0.238197782082633
4.9558,-0.219518066805515
4.9559,-0.124187110914136
4.956,-0.134171095797728
4.9561,-0.115813446235244
4.9562,-0.120322342593798
4.9563,-0.0691141634571946
4.9564,-0.0182280502747634
4.9565,-0.0658935233268109
4.9566,-0.0642832032645032
4.9567,-0.0369077624945099
4.9568,-0.0307885463957133
4.9569,-0.005667554261973
4.957,-0.0208045622906807
4.9571,-0.0346533144550442
4.9572,-0.0291782263740824
4.9573,-0.062994947216037
4.9574,-0.0272458423505149
4.9575,-0.031754738409563
4.9576,-0.0662155873395029
4.9577,-0.0749113157113736
4.9578,-0.0485020667545449
4.9579,-0.0546212829307291
4.958,-0.0130750262565624
4.9581,-0.0146853462603043
4.9582,-0.0124308982555594
4.9583,0.0349125090675394
4.9584,0.0632541399852547
4.9585,0.0577790522321506
4.9586,0.0510157085123941
4.9587,0.0136562855517987
4.9588,0.0252505893232745
4.9589,0.0664747798317328
