3.3,-3.17141667865549
3.3001,-3.28252963994607
3.3002,-3.39009992094923
3.3003,-3.46063255871992
3.3004,-3.53760655947559
3.3005,-3.58591661598736
3.3006,-3.63776942233672
3.3007,-3.74372954533767
3.3008,-3.80331200960343
3.3009,-3.83294221465595
3.301,-3.86514896430268
3.3011,-3.89155850294484
3.3012,-3.87674339546394
3.3013,-3.8632165591756
3.3014,-3.87126824733031
3.3015,-3.89638951649627
3.3016,-3.88543921928431
3.3017,-3.83519668696044
3.3018,-3.80460027929664
3.3019,-3.82102571861496
3.302,-3.82811120266121
3.3021,-3.805566481572
3.3022,-3.73149098728979
3.3023,-3.72440550665215
3.3024,-3.67802782128506
3.3025,-3.62359846776903
3.3026,-3.55789678186632
3.3027,-3.46546356214208
3.3028,-3.35112984310782
3.3029,-3.29766677218097
3.303,-3.18687587007098
3.3031,-3.09669726781472
3.3032,-2.95949703089769
3.3033,-2.82261893589394
3.3034,-2.66899348966431
3.3035,-2.53308174214497
3.3036,-2.34048653340742
3.3037,-2.23420494964234
3.3038,-2.06576481591202
3.3039,-1.94531245914356
3.304,-1.84676056178695
3.3041,-1.79200951927579
3.3042,-1.64933478102665
3.3043,-1.56430967938257
3.3044,-1.49474370013976
3.3045,-1.46028277944334
3.3046,-1.41132895284423
3.3047,-1.35400145218256
3.3048,-1.33113486684174
3.3049,-1.32372738169064
3.305,-1.33628790005966
3.3051,-1.34208506249806
3.3052,-1.33371138344357
3.3053,-1.35432351677289
3.3054,-1.30472557248973
3.3055,-1.27251911795502
3.3056,-1.2973180877541
3.3057,-1.28475757042252
3.3058,-1.26865434355628
3.3059,-1.21647989217347
3.306,-1.1617289305548
3.3061,-1.07799217694996
3.3062,-0.972032995700282
3.3063,-0.848038233651924
3.3064,-0.693769459532978
3.3065,-0.553993605482518
3.3066,-0.406166173274212
3.3067,-0.236438409363708
3.3068,-0.0802373586914657
3.3069,0.0270099505834005
3.307,0.161310626122862
3.3071,0.189008126535103
3.3072,0.303984956798305
3.3073,0.369041873202465
3.3074,0.41960591167182
3.3075,0.529751778114728
3.3076,0.616386977207383
3.3077,0.728143164782699
3.3078,0.865664472016676
3.3079,1.00350785087812
3.308,1.12589216810212
3.3081,1.29272133376768
3.3082,1.39288325765654
3.3083,1.4682462552761
3.3084,1.50077473051439
3.3085,1.57420535238396
3.3086,1.58032457116517
3.3087,1.63990644069947
3.3088,1.61671782066905
3.3089,1.62799006643062
3.309,1.64312708242541
3.3091,1.69208083835019
3.3092,1.79449725949529
3.3093,1.8785560318023
3.3094,1.99417712012564
3.3095,2.10045836353401
3.3096,2.17646556843031
3.3097,2.24538736551912
3.3098,2.34490530438302
3.3099,2.44828803982098
3.31,2.57389326474277
3.3101,2.68371735113921
3.3102,2.76069084902131
3.3103,2.91818060669306
3.3104,2.99451002301779
3.3105,3.09885912568717
3.3106,3.22929555002695
3.3107,3.32752548502555
3.3108,3.43638361371089
3.3109,3.51818826928139
3.311,3.54137699475484
3.3111,3.61223144544857
3.3112,3.65764271647972
3.3113,3.69468028351527
3.3114,3.73397231668054
3.3115,3.78550286072061
3.3116,3.82930383106234
3.3117,3.85474704515312
3.3118,3.91658372785738
3.3119,3.92109265322428
3.312,3.96457158053932
3.3121,3.9558757944747
3.3122,3.94750207484566
3.3123,3.91819405833635
3.3124,3.87085034650424
3.3125,3.8286596990924
3.3126,3.77133196011292
3.3127,3.73590471190227
3.3128,3.66279576898411
3.3129,3.57454975808962
3.313,3.49403334890313
3.3131,3.39451509801179
3.3132,3.25828142927952
3.3133,3.16133977675718
3.3134,3.03251370486627
3.3135,2.90046703140326
3.3136,2.76874247102024
3.3137,2.65505358379395
3.3138,2.53685582281544
3.3139,2.43025242073601
3.314,2.31076646220578
3.3141,2.20834995003634
3.3142,2.09401707547825
3.3143,1.99900808530478
3.3144,1.93652760536969
3.3145,1.90142259628535
3.3146,1.82831400567783
3.3147,1.75423923053094
3.3148,1.70850611244465
3.3149,1.6531110718621
3.315,1.58515553339346
3.3151,1.53137082218608
3.3152,1.48531565302534
3.3153,1.42058076890537
3.3154,1.35906652986027
3.3155,1.27726225953126
3.3156,1.24537791957931
3.3157,1.12589216810212
3.3158,0.998032763215607
3.3159,0.879191158338213
3.316,0.765824646504737
3.3161,0.645050667766897
3.3162,0.517191284593016
3.3163,0.348107717028412
3.3164,0.216061498748865
3.3165,0.0637252440765371
3.3166,-0.0783049746743802
3.3167,-0.250931291367001
3.3168,-0.332735562284928
3.3169,-0.365264034014004
3.317,-0.37170531567167
3.3171,-0.452865468324928
3.3172,-0.49795444518297
3.3173,-0.53853452639826
3.3174,-0.581046994596817
3.3175,-0.602303229553612
3.3176,-0.627424235259607
3.3177,-0.672835286173952
3.3178,-0.723721431719419
3.3179,-0.779438544728505
3.318,-0.833867405294906
3.3181,-0.8957037495686
3.3182,-0.950454684614664
3.3183,-1.03097077488677
3.3184,-1.08926443147242
3.3185,-1.16527163965736
3.3186,-1.2528731817484
3.3187,-1.27992660230597
3.3188,-1.33177899599086
3.3189,-1.40392146639481
3.319,-1.53725624164378
3.3191,-1.60972081099875
3.3192,-1.7672105203206
3.3193,-1.94176974340516
3.3194,-2.09442861836697
3.3195,-2.29797389548734
3.3196,-2.45320946621547
3.3197,-2.53887892433371
3.3198,-2.67607893806406
3.3199,-2.78622547826237
3.32,-2.91054297427992
3.3201,-3.03035160367754
3.3202,-3.12246257923021
3.3203,-3.2168280563636
3.3204,-3.34114577467723
3.3205,-3.4419526798327
3.3206,-3.55113337418705
3.3207,-3.57432220141668
3.3208,-3.65322864660513
3.3209,-3.75403570005721
3.321,-3.83294221465595
3.3211,-3.87803166563521
3.3212,-3.92698593843473
3.3213,-3.96112510966253
3.3214,-4.05130408176086
3.3215,-4.08995222579956
3.3216,-4.16048510928948
3.3217,-4.17626644306551
3.3218,-4.206540842271
3.3219,-4.24486695059821
3.322,-4.27771790704681
3.3221,-4.32860469458396
3.3222,-4.33085917284832
3.3223,-4.34309776963951
3.3224,-4.37755908619908
3.3225,-4.41073213560959
3.3226,-4.42522521742059
3.3227,-4.42425901192911
3.3228,-4.388187344066
3.3229,-4.34148742790827
3.323,-4.28319306703721
3.3231,-4.20332016126637
3.3232,-4.11249698016988
3.3233,-4.00750286141316
3.3234,-3.85838554644089
3.3235,-3.72859238154452
3.3236,-3.57979734155102
3.3237,-3.44968228469474
3.3238,-3.33373824032346
3.3239,-3.20781019341657
3.324,-3.09057800676312
3.3241,-2.97560034110092
3.3242,-2.88091289201622
3.3243,-2.77430903748841
3.3244,-2.71247238051064
3.3245,-2.64322822431678
3.3246,-2.54177751547272
3.3247,-2.44032684313908
3.3248,-2.29829596090384
3.3249,-2.19555711000955
3.325,-2.04354231907453
3.3251,-1.89571444204396
3.3252,-1.74627630169219
3.3253,-1.56881858584351
3.3254,-1.35883242106124
3.3255,-1.21100479574355
3.3256,-0.99361130758999
3.3257,-0.818408320173219
3.3258,-0.656087947922652
3.3259,-0.485393944250886
3.326,-0.297308515052049
3.3261,-0.106968671196855
3.3262,0.0624369881768289
3.3263,0.21251879525971
3.3264,0.318155770350515
3.3265,0.483374571259041
3.3266,0.520733987893909
3.3267,0.577417240750614
3.3268,0.66469656810683
3.3269,0.709141392084259
3.327,0.758095111761155
3.3271,0.774842437060742
3.3272,0.774198309163089
3.3273,0.746822873623226
3.3274,0.725566653225364
3.3275,0.709141392084259
3.3276,0.652458138379667
3.3277,0.621217936283068
3.3278,0.576128985002171
3.3279,0.550041806117256
3.328,0.525564946940679
3.3281,0.539091632273281
3.3282,0.574840729253842
3.3283,0.605436803312251
3.3284,0.673392294507383
3.3285,0.741669850485838
3.3286,0.860511448675706
3.3287,1.00286372291695
3.3288,1.16518397735172
3.3289,1.39803628294542
3.329,1.63958437652762
3.3291,1.95166462825849
3.3292,2.29659562277144
3.3293,2.62767807755755
3.3294,2.97486405352383
3.3295,3.30755743015406
3.3296,3.5900089112653
3.3297,3.83188035895806
3.3298,4.02479795903006
3.3299,4.146539026115
3.33,4.24187069881374
3.3301,4.30209714734593
3.3302,4.33559207746749
3.3303,4.3500850776152
3.3304,4.35459401118476
3.3305,4.31916667842438
3.3306,4.28309521802687
3.3307,4.23414110228102
3.3308,4.19066212656811
3.3309,4.11336618957041
3.331,4.09500840821537
3.3311,4.06634450678803
3.3312,4.05829284969332
3.3313,4.01674630330268
3.3314,3.97874249181128
3.3315,3.9616729851509
3.3316,3.95716405905782
3.3317,3.9368738926412
3.3318,3.92882223975434
3.3319,3.95426546375511
3.332,3.96489364669567
3.3321,4.00579605193559
3.3322,4.0151359721888
3.3323,3.98679414630203
3.3324,3.9545875298982
3.3325,3.89210670583289
3.3326,3.81352259825678
3.3327,3.74395635880961
3.3328,3.61996102297067
3.3329,3.45763993933192
3.333,3.34652734490023
3.3331,3.16391629870587
3.3332,3.00481610581819
3.3333,2.90111116139857
3.3334,2.78613397511648
3.3335,2.67308921244597
3.3336,2.55360318745932
3.3337,2.44281294109349
3.3338,2.29562942918878
3.3339,2.19836595154299
3.334,2.04184264499611
3.3341,1.91945819703251
3.3342,1.77291895567663
3.3343,1.68177478420446
3.3344,1.56969645436404
3.3345,1.45858433216465
3.3346,1.37839037417566
3.3347,1.26115905742565
3.3348,1.18418575436802
3.3349,1.12202740003924
3.335,1.0479526807811
3.3351,1.00608436272514
3.3352,0.979030988515408
3.3353,0.990303227720487
3.3354,0.994812123421954
3.3355,0.94134950365749
3.3356,0.892717844736602
3.3357,0.84795095432609
3.3358,0.838289035636938
3.3359,0.771299733625173
3.336,0.74295810626953
3.3361,0.750043513087678
3.3362,0.72685490900383
3.3363,0.663408312344905
3.3364,0.604792675436464
3.3365,0.501410151706528
3.3366,0.427979574061593
3.3367,0.389653965361844
3.3368,0.277897777172307
3.3369,0.154547282951811
3.337,0.0553515807127274
3.3371,-0.0412676148353711
3.3372,-0.156244465499973
3.3373,-0.305038052527252
3.3374,-0.42742240382826
3.3375,-0.585233828709117
3.3376,-0.731128908909664
3.3377,-0.848038233651924
3.3378,-0.948522298586128
3.3379,-1.05963450580142
3.338,-1.14530364321592
3.3381,-1.23966853654706
3.3382,-1.26575576277752
3.3383,-1.31599783209264
3.3384,-1.35045874170372
3.3385,-1.39393746311285
3.3386,-1.40359940176936
3.3387,-1.438382382662
3.3388,-1.47703014242936
3.3389,-1.54273134199706
3.339,-1.6329094759066
3.3391,-1.74402184744716
3.3392,-1.86060935618739
3.3393,-1.96656875432844
3.3394,-2.11020981403736
3.3395,-2.2702762709314
3.3396,-2.37398134325538
3.3397,-2.49990897967788
3.3398,-2.6155305667812
3.3399,-2.72503295029129
3.34,-2.85385934166728
3.3401,-2.97431207624608
3.3402,-3.05708310693359
3.3403,-3.11827571593505
3.3404,-3.22423558690491
3.3405,-3.30249777204359
3.3406,-3.38687925309911
3.3407,-3.48156690766182
3.3408,-3.542115497617
3.3409,-3.6171571251027
3.341,-3.67351888021213
3.3411,-3.6677216704064
3.3412,-3.71377728615858
3.3413,-3.67029820807769
3.3414,-3.68285882968724
3.3415,-3.68382503138131
3.3416,-3.64936384042983
3.3417,-3.66224652796185
3.3418,-3.69026637612474
3.3419,-3.68994430888276
3.342,-3.6793160901812
3.3421,-3.63100601208164
3.3422,-3.61071578263529
3.3423,-3.56884706142458
3.3424,-3.52472387959795
3.3425,-3.46159875939573
3.3426,-3.43100240674758
3.3427,-3.36433457946109
3.3428,-3.30797290534621
3.3429,-3.26932490839564
3.343,-3.19653786522669
3.3431,-3.15112649147337
3.3432,-3.14210863106627
3.3433,-3.04581078592358
3.3434,-2.97624447353087
3.3435,-2.94629231731142
3.3436,-2.88542181735417
3.3437,-2.83807810528651
3.3438,-2.74757756420748
3.3439,-2.69733528438042
3.344,-2.62036155335931
3.3441,-2.55176155184654
3.3442,-2.46931274586518
3.3443,-2.42100290959097
3.3444,-2.35336915213734
3.3445,-2.26447909401342
3.3446,-2.20006602438997
3.3447,-2.16689329865377
3.3448,-2.10666709657608
3.3449,-2.04966155718728
3.345,-1.92212377495849
3.3451,-1.83452209275452
3.3452,-1.78170344158894
3.3453,-1.67896474492171
3.3454,-1.5530374134447
3.3455,-1.44160302917898
3.3456,-1.40037875552747
3.3457,-1.34498364374441
3.3458,-1.26221305296041
3.3459,-1.16913641325173
3.346,-1.06349927862335
3.3461,-0.911484900922639
3.3462,-0.787490151035936
3.3463,-0.692159138483649
3.3464,-0.500530958217558
3.3465,-0.34078716409941
3.3466,-0.160753361803295
3.3467,-0.0477088947419153
3.3468,0.107525944163731
3.3469,0.236351527740289
3.347,0.335869287226036
3.3471,0.450524049692287
3.3472,0.553262445483937
3.3473,0.629913662626495
3.3474,0.707853136311095
3.3475,0.791589762444193
3.3476,0.843119994977101
3.3477,0.913974066381963
3.3478,0.948112847040277
3.3479,1.00286372291695
3.348,1.04505410488188
3.3481,1.03925695309887
3.3482,1.1081786478995
3.3483,1.10978896790893
3.3484,1.16743842545795
3.3485,1.15584412095217
3.3486,1.14843664868129
3.3487,1.16550604136666
3.3488,1.19159322683944
3.3489,1.22508788551391
3.349,1.23990283098812
3.3491,1.24924268801185
3.3492,1.28016083593441
3.3493,1.34553983905697
3.3494,1.36486368311622
3.3495,1.48080675547511
3.3496,1.57903631457582
3.3497,1.68628368287549
3.3498,1.81349904999597
3.3499,1.94973224233665
3.35,2.08177862838109
3.3501,2.1980438870787
3.3502,2.38419718240275
3.3503,2.53105865828438
3.3504,2.62155884700346
3.3505,2.711092861205
3.3506,2.83379958303419
3.3507,2.90272148639184
3.3508,2.92719842717583
3.3509,2.96423590655181
3.351,2.98452600559595
3.3511,3.01705457954178
3.3512,2.9941879579352
3.3513,2.97550818365368
3.3514,2.94652232897684
3.3515,2.92268951690608
3.3516,2.93653831291547
3.3517,2.95682841036704
3.3518,2.99966306437976
3.3519,3.10369010344211
3.352,3.12720086285133
3.3521,3.20449652209858
3.3522,3.30723536476351
3.3523,3.37325877690108
3.3524,3.46343711931371
3.3525,3.53139295994564
3.3526,3.59258543687727
3.3527,3.72559860421394
3.3528,3.87503720502054
3.3529,3.99452373485857
3.353,4.10273800019401
3.3531,4.19356072469735
3.3532,4.27246702096036
3.3533,4.30982674616605
3.3534,4.33043901097265
3.3535,4.31530187882261
3.3536,4.26280502405412
3.3537,4.20644338348334
3.3538,4.10306006653184
3.3539,3.98808241104475
3.354,3.85667944126216
3.3541,3.74299016116793
3.3542,3.61899482576866
3.3543,3.48565964364303
3.3544,3.2959630763053
3.3545,3.09306195247347
3.3546,2.89692431644959
3.3547,2.69048071227351
3.3548,2.48403721552425
3.3549,2.32203872114488
3.355,2.11913809932771
3.3551,1.9442571489251
3.3552,1.77002037760366
3.3553,1.6051235109119
3.3554,1.42637792252349
3.3555,1.30109499906857
3.3556,1.15487792891454
3.3557,1.07629431207255
3.3558,0.960351277981796
3.3559,0.793844210098666
3.356,0.613488401763272
3.3561,0.503664599261911
3.3562,0.407689545949472
3.3563,0.275965393489052
3.3564,0.147139811837631
3.3565,0.0286202704890942
3.3566,-0.0870007027716885
3.3567,-0.201011365232293
3.3568,-0.291511361982704
3.3569,-0.428388596137846
3.357,-0.563977594215259
3.3571,-0.684107533291451
3.3572,-0.858344290838335
3.3573,-0.997154015589829
3.3574,-1.10633384591473
3.3575,-1.19876634511714
3.3576,-1.25319524626997
3.3577,-1.35142493546798
3.3578,-1.38846236463273
3.3579,-1.46092690877703
3.358,-1.48572588885067
3.3581,-1.52695017058414
3.3582,-1.6019912563249
3.3583,-1.59973680290604
3.3584,-1.66511595717256
3.3585,-1.71664633267419
3.3586,-1.73081718713633
3.3587,-1.70150928416416
3.3588,-1.72663034371818
3.3589,-1.82324981900712
3.359,-1.89603650706771
3.3591,-2.00328417635579
3.3592,-2.11407459676602
3.3593,-2.27220866326152
3.3594,-2.39942451863219
3.3595,-2.55176155184654
3.3596,-2.61778502717376
3.3597,-2.71376064405065
3.3598,-2.78944613802431
3.3599,-2.8863880156513
3.36,-2.96851488448238
3.3601,-3.01070556099131
3.3602,-3.1037827281758
3.3603,-3.14307483037908
3.3604,-3.2132853244496
3.3605,-3.29251370577464
3.3606,-3.34501057530707
3.3607,-3.39525298960718
3.3608,-3.40394879324076
3.3609,-3.45612362228971
3.361,-3.48994064780702
3.3611,-3.52891075047274
3.3612,-3.53406382243155
3.3613,-3.5559643796502
3.3614,-3.56530432385834
3.3615,-3.52472387959795
3.3616,-3.50958673173558
3.3617,-3.49380545106081
3.3618,-3.45258088658884
3.3619,-3.40169432559907
3.362,-3.36787731373807
3.3621,-3.33824717424871
3.3622,-3.35982564500845
3.3623,-3.34855330927652
3.3624,-3.31763490561652
3.3625,-3.30539637201078
3.3626,-3.29412403901401
3.3627,-3.29251370577464
3.3628,-3.3057184386761
3.3629,-3.3018536387226
3.363,-3.25418777804787
3.3631,-3.2158618567453
3.3632,-3.15724575408943
3.3633,-3.08510287858661
3.3634,-3.04194599026966
3.3635,-2.99589051345309
3.3636,-2.91891669381172
3.3637,-2.8474180205782
3.3638,-2.75723954218843
3.3639,-2.67768926727174
3.364,-2.58590051761867
3.3641,-2.47800851724914
3.3642,-2.35272502118775
3.3643,-2.24193451813865
3.3644,-2.09603894442115
3.3645,-1.93919322289062
3.3646,-1.77107529927094
3.3647,-1.64836858658911
3.3648,-1.50118499403379
3.3649,-1.35851035646775
3.365,-1.22839627872952
3.3651,-1.09667191314454
3.3652,-0.970744738299582
3.3653,-0.87219305544959
3.3654,-0.81261116334824
3.3655,-0.770420745779873
3.3656,-0.698922486915326
3.3657,-0.696345973219482
3.3658,-0.670258772571774
3.3659,-0.639018545866838
3.366,-0.585555892872529
3.3661,-0.506006048442094
3.3662,-0.414861903896311
3.3663,-0.306326308778642
3.3664,-0.204876133631278
3.3665,-0.129513152024147
3.3666,-0.0325718870040913
3.3667,0.0559957086651138
3.3668,0.121696758698049
3.3669,0.209942283628453
3.367,0.253420917105081
3.3671,0.286915567680605
3.3672,0.333292775684756
3.3673,0.408977801704073
3.3674,0.481442187639035
3.3675,0.577095176813493
3.3676,0.650847818680522
3.3677,0.744568425999757
3.3678,0.816066622782167
3.3679,0.907210723109135
3.368,1.03313773734999
3.3681,1.12492597608541
3.3682,1.26599001803361
3.3683,1.380000694552
3.3684,1.45858433216465
3.3685,1.55616976045277
3.3686,1.66438331815821
3.3687,1.71011643345429
3.3688,1.74908620299297
3.3689,1.78934423165544
3.369,1.84055244757964
3.3691,1.90271085346418
3.3692,1.9207464542489
3.3693,1.95713972173747
3.3694,2.02541736232988
3.3695,2.04699567495026
3.3696,2.12171461466031
3.3697,2.21736775529513
3.3698,2.2895102032099
3.3699,2.36390711383202
3.37,2.46084856068512
3.3701,2.57679184729178
3.3702,2.61511755178209
3.3703,2.71914448217443
3.3704,2.83283338821891
3.3705,2.95167536963445
3.3706,3.05570239416156
3.3707,3.12494640639733
3.3708,3.19225804149076
3.3709,3.26826545497244
3.371,3.36874986049463
3.3711,3.43638361371089
3.3712,3.46762397159418
3.3713,3.51528967872909
3.3714,3.55425962083189
3.3715,3.57422769240749
3.3716,3.59451783110178
3.3717,3.60321360527714
3.3718,3.62575820625332
3.3719,3.60836665676798
3.372,3.64218355954621
3.3721,3.63252158690289
3.3722,3.64250562530681
3.3723,3.63091125816182
3.3724,3.59967088243233
3.3725,3.5983826195908
3.3726,3.58388966303166
3.3727,3.53686807576553
3.3728,3.47986246321981
3.3729,3.40643152111151
3.373,3.35264658816256
3.3731,3.2743846966833
3.3732,3.19386836785993
3.3733,3.0718056515472
3.3734,2.92043506179249
3.3735,2.86053097392198
3.3736,2.7481303190396
3.3737,2.64893435282775
3.3738,2.53814408161081
3.3739,2.46406920711774
3.374,2.37517937403961
3.3741,2.28371304182723
3.3742,2.18258479303011
3.3743,2.08338895035198
3.3744,1.97710771014531
3.3745,1.88113254606872
3.3746,1.78193675420425
3.3747,1.66534951070572
3.3748,1.58966443149928
3.3749,1.50560569228543
3.375,1.41671599984621
3.3751,1.26534588995138
3.3752,1.17613415390373
3.3753,1.06051317640449
3.3754,0.960995405928201
3.3755,0.872749879128072
3.3756,0.79835310541252
3.3757,0.690783747350391
3.3758,0.558093404534788
3.3759,0.472746461346978
3.376,0.328461816541026
3.3761,0.166141585519181
3.3762,0.0157377112020111
3.3763,-0.15560033745794
3.3764,-0.309224885350069
3.3765,-0.458662622362044
3.3766,-0.618084374066956
3.3767,-0.729840652001321
3.3768,-0.830002633979551
3.3769,-0.910840772287898
3.377,-0.983949376792946
3.3771,-1.07605979048404
3.3772,-1.12114880983741
3.3773,-1.17879834736556
3.3774,-1.24127885911352
3.3775,-1.26285718201614
3.3776,-1.32984660854615
3.3777,-1.40327733714413
3.3778,-1.40553178952558
3.3779,-1.45480768014537
3.378,-1.40714211266212
3.3781,-1.36012067943746
3.3782,-1.3124551219027
3.3783,-1.30987860541765
3.3784,-1.26639989183797
3.3785,-1.29602982955101
3.3786,-1.2770280214594
3.3787,-1.29892841051288
3.3788,-1.27090879528511
3.3789,-1.2776721505349
3.379,-1.34723809583745
3.3791,-1.47058884889674
3.3792,-1.61261939403941
3.3793,-1.73919087410981
3.3794,-1.88637455648146
3.3795,-2.0590014471533
3.3796,-2.25642745958491
3.3797,-2.35240295571347
3.3798,-2.46705828666026
3.3799,-2.62744700049417
3.38,-2.7491878938464
3.3801,-2.84419736009439
3.3802,-2.92213735524446
3.3803,-3.01779101882678
3.3804,-3.08381461315151
3.3805,-3.17463734344927
3.3806,-3.19106273458916
3.3807,-3.27769864050937
3.3808,-3.34629884219855
3.3809,-3.36852144724905
3.381,-3.38784545344922
3.3811,-3.43229067414084
3.3812,-3.40877979540794
3.3813,-3.39782952398133
3.3814,-3.42681553777198
3.3815,-3.42423900305761
3.3816,-3.39106612131342
3.3817,-3.3739965821679
3.3818,-3.34758710909746
3.3819,-3.29347990571688
3.382,-3.23132105112371
3.3821,-3.18429933809722
3.3822,-3.08478081222718
3.3823,-3.03002953739122
3.3824,-2.94017306003346
3.3825,-2.88059082592372
3.3826,-2.80812596542912
3.3827,-2.74371277311413
3.3828,-2.67382447718945
3.3829,-2.59137563515985
3.383,-2.54016718705848
3.3831,-2.5008751765883
3.3832,-2.41198507437112
3.3833,-2.32116260634299
3.3834,-2.27285279404091
3.3835,-2.22486505463026
3.3836,-2.19265852222734
3.3837,-2.11922764047513
3.3838,-2.03130384318235
3.3839,-1.97268799106182
3.384,-1.94176974340516
3.3841,-1.91375008382178
3.3842,-1.85513425136139
3.3843,-1.79748462316253
3.3844,-1.78041518189802
3.3845,-1.71213742454548
3.3846,-1.65738640143079
3.3847,-1.58363356456198
3.3848,-1.53145907664168
3.3849,-1.49313337668139
3.385,-1.4380603180116
3.3851,-1.40198907864553
3.3852,-1.34015267501055
3.3853,-1.27251911795502
3.3854,-1.17718802500053
3.3855,-1.09377333334759
3.3856,-1.00617181787081
3.3857,-0.939182432870856
3.3858,-0.867362091015378
3.3859,-0.753029276721084
3.386,-0.677022120797038
3.3861,-0.535313884959339
3.3862,-0.407454429657544
3.3863,-0.288290721402255
3.3864,-0.166550514216777
3.3865,-0.0135701115394564
3.3866,0.0885241699788126
3.3867,0.146173619951448
3.3868,0.242148678855659
3.3869,0.335869287226036
3.387,0.40092620323431
3.3871,0.417995591980591
3.3872,0.472746461346978
3.3873,0.503020471388953
3.3874,0.565500875081629
3.3875,0.602860291809357
3.3876,0.669527527216601
3.3877,0.688529299756322
3.3878,0.743924298107585
3.3879,0.796098657754771
3.388,0.910109298794934
3.3881,0.95165555072608
3.3882,1.02508613771451
3.3883,1.07726050405743
3.3884,1.14553807258625
3.3885,1.21510390062231
3.3886,1.27855051570952
3.3887,1.30914660037954
3.3888,1.33394553279417
3.3889,1.3638974909046
3.389,1.39578183437821
3.3891,1.43861635805617
3.3892,1.46728006296034
3.3893,1.5281501809062
3.3894,1.60673383170132
3.3895,1.63571960647593
3.3896,1.7387801480307
3.3897,1.82058446354154
3.3898,1.92106851855342
3.3899,2.04506328871194
3.39,2.17453318172956
3.3901,2.36809395330584
3.3902,2.54716189328742
3.3903,2.68854832336625
3.3904,2.81737427151469
3.3905,2.98130535487561
3.3906,3.11592858073492
3.3907,3.24958566522458
3.3908,3.33267853165459
3.3909,3.38453106821208
3.391,3.44991036620112
3.3911,3.48437138131677
3.3912,3.52720610674232
3.3913,3.53847840396782
3.3914,3.54298732298259
3.3915,3.56746431316757
3.3916,3.57100703560637
3.3917,3.59097510836701
3.3918,3.61802862857001
3.3919,3.63542017866042
3.392,3.66698262421525
3.3921,3.64991313790443
3.3922,3.63091125816182
3.3923,3.60707839388635
3.3924,3.57970280905381
3.3925,3.54524178251673
3.3926,3.42317892735371
3.3927,3.34620527946878
3.3928,3.24958566522458
3.3929,3.13493042795336
3.393,2.97744057405034
3.3931,2.81673014166588
3.3932,2.62477949465209
3.3933,2.41253886698014
3.3934,2.19128053337537
3.3935,1.92686567606369
3.3936,1.69304703093376
3.3937,1.4943334481944
3.3938,1.2820932202073
3.3939,1.09271957589868
3.394,0.88337798983413
3.3941,0.665018632047356
3.3942,0.436997364319425
3.3943,0.245047254409313
3.3944,0.0720989074034853
3.3945,-0.0422338068196326
3.3946,-0.160431297781101
3.3947,-0.280561184048628
3.3948,-0.404233788702544
3.3949,-0.442237352688231
3.395,-0.468324545841855
3.3951,-0.469290738195687
3.3952,-0.479918854158537
3.3953,-0.418726673087874
3.3954,-0.298274707233352
3.3955,-0.152379697252622
3.3956,0.0456896614000991
3.3957,0.243114870707173
3.3958,0.427013382247771
3.3959,0.642796220190736
3.396,0.824440285576213
3.3961,0.989337035785914
3.3962,1.16486191333686
3.3963,1.31365549713966
3.3964,1.45439749884807
3.3965,1.52364128313479
3.3966,1.56873026193443
3.3967,1.62444736060227
3.3968,1.58515553339346
3.3969,1.55520356803901
3.397,1.48467152480248
3.3971,1.34715015938142
3.3972,1.23217329419625
3.3973,1.0447320408934
3.3974,0.894328164551189
3.3975,0.694326450714574
3.3976,0.501088087770038
3.3977,0.255997428699434
3.3978,0.0701665235620411
3.3979,-0.155278273437045
3.398,-0.332413498213682
3.3981,-0.488936649623317
3.3982,-0.638374417495058
3.3983,-0.791999050610899
3.3984,-0.858666355128134
3.3985,-1.00295117418258
3.3986,-1.04868431628739
3.3987,-1.10762210363068
3.3988,-1.1878161527041
3.3989,-1.28282518317006
3.399,-1.36044274403208
3.3991,-1.49699815299164
3.3992,-1.62228133765828
3.3993,-1.76109128706346
3.3994,-1.92727681575655
3.3995,-2.07768122786811
3.3996,-2.2425786488553
3.3997,-2.36109872364032
3.3998,-2.47349959872101
3.3999,-2.63646484256702
3.4,-2.78271980015338
3.4001,-2.8754748159666
3.4002,-2.98723177242074
3.4003,-3.12410995842726
3.4004,-3.22910363220816
3.4005,-3.31702781912371
3.4006,-3.41171544349343
3.4007,-3.45326206702123
3.4008,-3.54150841013153
3.4009,-3.5782240526873
3.401,-3.64714641657262
3.4011,-3.73571490856744
3.4012,-3.79175462888804
3.4013,-3.85391364737748
3.4014,-3.96728144157099
3.4015,-4.02396536362441
3.4016,-4.08290377779555
3.4017,-4.08870099985863
3.4018,-4.051019059647
3.4019,-4.09514235791702
3.402,-4.10705887091029
3.4021,-4.09997337660643
3.4022,-4.08386998146028
3.4023,-4.02557570256527
3.4024,-3.9717903893017
3.4025,-3.9154285502398
3.4026,-3.81913036002429
3.4027,-3.73507077394153
3.4028,-3.60721009080309
3.4029,-3.54891595153795
3.403,-3.46356820741788
3.4031,-3.29899208569811
3.4032,-3.19206598115153
3.4033,-3.0413389049187
3.4034,-2.86452456930019
3.4035,-2.71186529641259
3.4036,-2.57047841062635
3.4037,-2.3662888194838
3.4038,-2.16145523718807
3.4039,-2.01942448128572
3.404,-1.88093649980755
3.4041,-1.76692550405227
3.4042,-1.61104611889621
3.4043,-1.50186617228392
3.4044,-1.32923952837968
3.4045,-1.2252126827358
3.4046,-1.11635489241356
3.4047,-1.02231208576158
3.4048,-0.970137658803818
3.4049,-0.930845809510934
3.405,-0.868043268862707
3.4051,-0.813292341167814
3.4052,-0.738895499732218
3.4053,-0.709909719562738
3.4054,-0.637445274306047
3.4055,-0.583982621446929
3.4056,-0.540181896530264
3.4057,-0.480277967711419
3.4058,-0.41006799188554
3.4059,-0.335027060267437
3.406,-0.264817094958331
3.4061,-0.189132045603461
3.4062,-0.118277961104804
3.4063,-0.0941231604368365
3.4064,-0.0699683601821605
3.4065,-0.0841391762823947
3.4066,-0.0483900722908351
3.4067,-0.0313206805935294
3.4068,-0.00201285754193735
3.4069,0.055958659088342
3.407,0.0366348204222522
3.4071,0.0862326726005973
3.4072,0.1316436920212
3.4073,0.218600960774758
3.4074,0.297506628287278
3.4075,0.413771711167538
3.4076,0.550326820437678
3.4077,0.730682626733764
3.4078,0.8984779464852
3.4079,1.08656331038686
3.408,1.25500279116979
3.4081,1.40347432287497
3.4082,1.54743697935122
3.4083,1.71330002613524
3.4084,1.84760081213152
3.4085,1.97771478959696
3.4086,2.0289230211264
3.4087,2.11491421279905
3.4088,2.1387469799266
3.4089,2.14679859068335
3.409,2.13101743371486
3.4091,2.11008324661826
3.4092,2.11523627721264
3.4093,2.10879498897733
3.4094,2.06918106800285
3.4095,2.09816686355642
3.4096,2.07143551871351
3.4097,2.06563835976173
3.4098,2.0843180943792
3.4099,2.14776478398239
3.41,2.23182360787307
3.4101,2.30750876782563
3.4102,2.36000528998447
3.4103,2.46821899860988
3.4104,2.59543455316961
3.4105,2.70622483998133
3.4106,2.8344066642991
3.4107,2.96548711827708
3.4108,3.07241273346184
3.4109,3.18159283936551
3.411,3.27982275959852
3.4111,3.35615225989142
3.4112,3.42314187931473
3.4113,3.50848925294234
3.4114,3.56903759366671
3.4115,3.57998782687808
3.4116,3.56485073990403
3.4117,3.59383665184389
3.4118,3.60543101745779
3.4119,3.62217843530625
3.412,3.6080075432151
3.4121,3.58610707503459
3.4122,3.54488266896384
3.4123,3.44826299047955
3.4124,3.37676444889305
3.4125,3.27305938706286
3.4126,3.17225294688038
3.4127,3.07176860314985
3.4128,2.97418287490647
3.4129,2.86564696476573
3.413,2.74294023252565
3.4131,2.64148981406122
3.4132,2.51040946948945
3.4133,2.44213176291166
3.4134,2.35002128838914
3.4135,2.28464218635343
3.4136,2.21668657726596
3.4137,2.12844091833583
3.4138,2.03407605096637
3.4139,1.9912414918269
3.414,1.89848696838281
3.4141,1.81700470745856
3.4142,1.69784094451475
3.4143,1.61217187301751
3.4144,1.49977148872738
3.4145,1.44244407774848
3.4146,1.3641825054927
3.4147,1.2978373090582
3.4148,1.24856151042244
3.4149,1.25081595867999
3.415,1.26273232811353
3.4151,1.26015581579323
3.4152,1.23696720516574
3.4153,1.27142805723706
3.4154,1.27980172238153
3.4155,1.26176613599275
3.4156,1.21860955540493
3.4157,1.17384265624682
3.4158,1.06788359866913
3.4159,0.984146962567816
3.416,0.84823596868708
3.4161,0.77705983509972
3.4162,0.679474459778525
3.4163,0.564497633654994
3.4164,0.431485227763046
3.4165,0.371903399054035
3.4166,0.285268198342172
3.4167,0.21634651310263
3.4168,0.131321628057049
3.4169,0.0356686284835604
3.417,-0.00619968937413597
3.4171,-0.114413192969482
3.4172,-0.168197883865154
3.4173,-0.255477237533283
3.4174,-0.305397166080133
3.4175,-0.383014608140894
3.4176,-0.457733479458955
3.4177,-0.491872276183524
3.4178,-0.536317126798991
3.4179,-0.619087615974254
3.418,-0.675126784934478
3.4181,-0.731488022462546
3.4182,-0.827463169061233
3.4183,-0.865144690218677
3.4184,-0.919251493824525
3.4185,-0.945338704436504
3.4186,-0.962730178817601
3.4187,-0.981087846782976
3.4188,-1.00137790153131
3.4189,-1.02875337337392
3.419,-1.10411644404509
3.4191,-1.1946165558829
3.4192,-1.29349036215968
3.4193,-1.42167207006665
3.4194,-1.54598903811889
3.4195,-1.67127223763097
3.4196,-1.80428503550873
3.4197,-1.92248288851137
3.4198,-2.0819051237687
3.4199,-2.26065135763741
3.42,-2.42522680975142
3.4201,-2.54310282607857
3.4202,-2.66258922082685
3.4203,-2.80236582502915
3.4204,-2.9083255588022
3.4205,-3.0516450267585
3.4206,-3.17950538778806
3.4207,-3.26903988872176
3.4208,-3.37661016307961
3.4209,-3.45132966575134
3.421,-3.5485938845149
3.4211,-3.63007685703947
3.4212,-3.70898332330811
3.4213,-3.77243058563601
3.4214,-3.83072478846366
3.4215,-3.88032318446088
3.4216,-3.90930926584225
3.4217,-3.97758760796812
3.4218,-4.01752400799747
3.4219,-4.02750810931233
3.422,-3.99884407791202
3.4221,-4.02396536362441
3.4222,-3.96148422321541
3.4223,-3.87806871164448
3.4224,-3.8017387186321
3.4225,-3.70060957443013
3.4226,-3.6191265743035
3.4227,-3.50350450609732
3.4228,-3.43909112477405
3.4229,-3.31896021921925
3.423,-3.2365111631327
3.4231,-3.12185549355457
3.4232,-3.00881021073054
3.4233,-2.87837341075131
3.4234,-2.75405593044052
3.4235,-2.63843428509275
3.4236,-2.58239484238392
3.4237,-2.49962396195896
3.4238,-2.43199018643732
3.4239,-2.34406630159113
3.424,-2.23295373644917
3.4241,-2.20171339920616
3.4242,-2.12763838498609
3.4243,-2.04647795392447
3.4244,-2.00718600627673
3.4245,-1.98206492736629
3.4246,-1.92216082346399
3.4247,-1.94277298708963
3.4248,-1.9295683196281
3.4249,-1.8925308403548
3.425,-1.88995432020079
3.4251,-1.88995432020079
3.4252,-1.86257879470481
3.4253,-1.84583141542238
3.4254,-1.80460710045133
3.4255,-1.7868935290222
3.4256,-1.75050019398188
3.4257,-1.67706940462176
3.4258,-1.6477615057068
3.4259,-1.61072405411443
3.426,-1.53471677268562
3.4261,-1.45677711701406
3.4262,-1.42392652253912
3.4263,-1.31893346216405
3.4264,-1.18881939521588
3.4265,-1.04743310787132
3.4266,-0.909267499940677
3.4267,-0.748235362490527
3.4268,-0.616189038383679
3.4269,-0.423916748153013
3.427,-0.292514603652842
3.4271,-0.129228137548166
3.4272,-0.0232690808009336
3.4273,0.144204186587367
3.4274,0.305558226914481
3.4275,0.479794818339397
3.4276,0.673033180954502
3.4277,0.814419253416992
3.4278,0.999606033541692
3.4279,1.18382664081513
3.428,1.36901346656302
3.4281,1.58189784250014
3.4282,1.77320397058607
3.4283,1.94776280718697
3.4284,2.13359394910632
3.4285,2.2894731541803
3.4286,2.42023136868494
3.4287,2.52103760402071
3.4288,2.59897726536289
3.4289,2.63762503672413
3.429,2.63859123105496
3.4291,2.60026552434978
3.4292,2.61991147439821
3.4293,2.59543455316961
3.4294,2.54390419738907
3.4295,2.47369409765499
3.4296,2.43118156566518
3.4297,2.41604452873312
3.4298,2.34519031995143
3.4299,2.35130954664757
3.43,2.32908709218242
3.4301,2.36483625857477
3.4302,2.44180969828295
3.4303,2.48593255459036
3.4304,2.52329205683378
3.4305,2.56677079198677
3.4306,2.53520845047109
3.4307,2.51813902184984
3.4308,2.49076352452732
3.4309,2.47208377439938
3.431,2.41217975342725
3.4311,2.34937715926125
3.4312,2.28818489608845
3.4313,2.24985921940458
3.4314,2.21636451278988
3.4315,2.20605844966307
3.4316,2.2421296715257
3.4317,2.26241973496414
3.4318,2.3381048996656
3.4319,2.42989330718313
3.432,2.55646472102912
3.4321,2.72619286005964
3.4322,2.9155670380549
3.4323,3.13102859703956
3.4324,3.37257759788837
3.4325,3.63570519661334
3.4326,3.91590254820993
3.4327,4.14134891666167
3.4328,4.31397656537957
3.4329,4.45665212757364
3.433,4.54361019056942
3.4331,4.57259621937792
3.4332,4.53877918615024
3.4333,4.44892252365734
3.4334,4.29787323448136
3.4335,4.12846626140642
3.4336,3.92524246511857
3.4337,3.68079440576652
3.4338,3.47628269392616
3.4339,3.24600589837886
3.434,3.04246067525011
3.4341,2.83215220972816
3.4342,2.64760904492025
3.4343,2.52812302718734
3.4344,2.3455123845124
3.4345,2.24631650994522
3.4346,2.16934310145621
3.4347,2.04470417515906
3.4348,1.94872900014453
3.4349,1.81797090021595
3.435,1.76225378680859
3.4351,1.6856025051309
3.4352,1.58672880473999
3.4353,1.44727503920863
3.4354,1.37642094024903
3.4355,1.24276435777994
3.4356,1.12939782262267
3.4357,1.04211847942291
3.4358,0.932294662931194
3.4359,0.803791142987212
3.436,0.716833877122128
3.4361,0.601212922505277
3.4362,0.458538598505828
3.4363,0.322305552008921
3.4364,0.181241541971345
3.4365,0.0408216521505913
3.4366,-0.1140911289587
3.4367,-0.249680084688121
3.4368,-0.352740584378604
3.4369,-0.466429210573278
3.437,-0.605560920645798
3.4371,-0.73470866474392
3.4372,-0.875450747681039
3.4373,-1.0158707982233
3.4374,-1.13310224327263
3.4375,-1.29026971668681
3.4376,-1.41619697125245
3.4377,-1.49896759001742
3.4378,-1.62070806246889
3.4379,-1.73697346857442
3.438,-1.84422109053197
3.4381,-1.91475332745507
3.4382,-2.03713806431636
3.4383,-2.16886273861926
3.4384,-2.21846079610623
3.4385,-2.29156963537197
3.4386,-2.35050761095605
3.4387,-2.32023345813537
3.4388,-2.3488972836019
3.4389,-2.41781930213163
3.439,-2.44873759604784
3.4391,-2.50316668397182
3.4392,-2.60816010198542
3.4393,-2.68384556605183
3.4394,-2.76210757892033
3.4395,-2.8464888699327
3.4396,-2.90091803798604
3.4397,-2.94407490146579
3.4398,-3.02555765670044
3.4399,-3.09802258049535
3.44,-3.20333830910668
3.4401,-3.27870188731454
3.4402,-3.31573955240257
3.4403,-3.36018475856133
3.4404,-3.43200565399614
3.4405,-3.47194194685111
3.4406,-3.50092797047505
3.4407,-3.4661447425936
3.4408,-3.41719057947565
3.4409,-3.41396991123426
3.441,-3.32733395315865
3.4411,-3.2091355065541
3.4412,-3.10220944342749
3.4413,-2.96984019665311
3.4414,-2.81073954100102
3.4415,-2.71057703288345
3.4416,-2.58690376264138
3.4417,-2.45839956356925
3.4418,-2.37627284979846
3.4419,-2.2922137661911
3.442,-2.20590024834807
3.4421,-2.15114914852372
3.4422,-2.13118110267059
3.4423,-2.17949089314524
3.4424,-2.20428992174848
3.4425,-2.28609452346395
3.4426,-2.36564468850722
3.4427,-2.44680520258212
3.4428,-2.5501882712349
3.4429,-2.58658169690628
3.443,-2.63650189032647
3.4431,-2.68094697342265
3.4432,-2.68577796115528
3.4433,-2.69060894897459
3.4434,-2.67482772241887
3.4435,-2.63811221929742
3.4436,-2.58271690811417
3.4437,-2.54084836629348
3.4438,-2.435210842057
3.4439,-2.38174796333873
3.444,-2.30541844828142
3.4441,-2.16564208580212
3.4442,-2.05871643035534
3.4443,-1.9566217852056
3.4444,-1.81748969838451
3.4445,-1.76145040061634
3.4446,-1.62521696954861
3.4447,-1.49735726654452
3.4448,-1.38656702588953
3.4449,-1.3131363000172
3.445,-1.19848132969796
3.4451,-1.13406843660775
3.4452,-1.06707903621541
3.4453,-1.02070176387008
3.4454,-0.91860736518186
3.4455,-0.814902662503679
3.4456,-0.735674857431266
3.4457,-0.669007565127937
3.4458,-0.588491519737482
3.4459,-0.522790432882739
3.446,-0.415221017449193
3.4461,-0.337281508773329
3.4462,-0.263850902807262
3.4463,-0.167875819841156
3.4464,-0.0744772561990766
3.4465,-0.00169079355528298
3.4466,0.10652270267523
3.4467,0.212803809614275
3.4468,0.278504855460663
3.4469,0.382209445136767
3.447,0.502983421772551
3.4471,0.578024319009141
3.4472,0.709426406418098
3.4473,0.813453061558149
3.4474,0.900410330268047
3.4475,0.984791090522444
3.4476,1.11715939042624
3.4477,1.21732129929174
3.4478,1.27883553024632
3.4479,1.37158997914328
3.448,1.45919141091831
3.4481,1.48141383425251
3.4482,1.55806509586971
3.4483,1.59123770285663
3.4484,1.632461915397
3.4485,1.66788897480283
3.4486,1.67690677200801
3.4487,1.7126558977278
3.4488,1.70106158649188
3.4489,1.7319797502029
3.449,1.70138365069037
3.4491,1.69494236674748
3.4492,1.69300998157568
3.4493,1.7438961261577
3.4494,1.75967727300382
3.4495,1.80573245872615
3.4496,1.8952663254607
3.4497,1.95581441521407
3.4498,2.06435010222509
3.4499,2.20992322331117
3.45,2.37192167926441
3.4501,2.47594855022275
3.4502,2.5764327337389
3.4503,2.73005763825704
3.4504,2.87949575860453
3.4505,2.99640536505138
3.4506,3.08658360063728
3.4507,3.20284914740714
3.4508,3.27499177920097
3.4509,3.31396168988042
3.451,3.37934097261713
3.4511,3.4305493862311
3.4512,3.45148364591187
3.4513,3.46275594020327
3.4514,3.44375407293353
3.4515,3.46758692360382
3.4516,3.44343200739717
3.4517,3.44021135205294
3.4518,3.43119351727607
3.4519,3.40446208008496
3.452,3.41605643808953
3.4521,3.40929306253205
3.4522,3.38352782371578
3.4523,3.3117072321042
3.4524,3.25276927033178
3.4525,3.21315523666058
3.4526,3.11170468483038
3.4527,3.0205602472549
3.4528,2.93682332942261
3.4529,2.84761132706081
3.453,2.71942949830625
3.4531,2.60638475459232
3.4532,2.46725280466779
3.4533,2.31395005857663
3.4534,2.16837690811749
3.4535,2.01893902594385
3.4536,1.87562040399348
3.4537,1.79123956777766
3.4538,1.69655268772787
3.4539,1.62118966956547
3.454,1.54325014560836
3.4541,1.44888535970094
3.4542,1.36160599293124
3.4543,1.23471275693448
3.4544,1.23052592451622
3.4545,1.15773945548978
3.4546,1.0923604623458
3.4547,1.05145833510188
3.4548,1.03728751960988
3.4549,0.959670100455791
3.455,0.906207481626592
3.4551,0.871424573695154
3.4552,0.845981520989223
3.4553,0.796383672103934
3.4554,0.809910358078463
3.4555,0.786077625687144
3.4556,0.772873003763958
3.4557,0.755803614525008
3.4558,0.718766260786125
3.4559,0.641792978759088
3.456,0.551615076184333
3.4561,0.467234324804428
3.4562,0.350969242892244
3.4563,0.278504855460663
3.4564,0.199921251437139
3.4565,0.0727059857706026
3.4566,-0.0268117847046387
3.4567,-0.0683580401794766
3.4568,-0.134059097772231
3.4569,-0.198793966526099
3.457,-0.27769965705384
3.4571,-0.347909623226272
3.4572,-0.472870492935724
3.4573,-0.526333138410798
3.4574,-0.588491519737482
3.4575,-0.691229995199685
3.4576,-0.801375963406405
3.4577,-0.851295925771433
3.4578,-0.915064657659542
3.4579,-1.00427648084001
3.458,-1.07931748373839
3.4581,-1.15886739949019
3.4582,-1.23777319851578
3.4583,-1.29026971668681
3.4584,-1.34663101563483
3.4585,-1.40975567861588
3.4586,-1.43906356086552
3.4587,-1.49542487838504
3.4588,-1.56917769939639
3.4589,-1.65677932052656
3.459,-1.75758562176808
3.4591,-1.87449519966516
3.4592,-1.99430340147769
3.4593,-2.11636610170031
3.4594,-2.23230960575307
3.4595,-2.3543723966412
3.4596,-2.49769156815228
3.4597,-2.65035071978707
3.4598,-2.80397615500276
3.4599,-2.93119225487251
3.46,-3.02845625323513
3.4601,-3.15502833599507
3.4602,-3.22781536598476
3.4603,-3.30124655229745
3.4604,-3.3489124228294
3.4605,-3.41847884678545
3.4606,-3.4655006087968
3.4607,-3.48095982044966
3.4608,-3.53088019899936
3.4609,-3.57886818682419
3.461,-3.59432740670167
3.4611,-3.58337712583768
3.4612,-3.59303913833509
3.4613,-3.55567935913496
3.4614,-3.55310282288208
3.4615,-3.50769137654954
3.4616,-3.48450255660933
3.4617,-3.44134559279712
3.4618,-3.37049089458756
3.4619,-3.32540155299107
3.462,-3.27483708782818
3.4621,-3.26807368888504
3.4622,-3.2168651033766
3.4623,-3.18659085062775
3.4624,-3.12378789201556
3.4625,-3.11638036466731
3.4626,-3.07547793519868
3.4627,-3.06710421034275
3.4628,-3.03167691609195
3.4629,-2.98433317637428
3.463,-2.8970532446031
3.4631,-2.7994672311018
3.4632,-2.71540802114976
3.4633,-2.65292724627597
3.4634,-2.55437512527482
3.4635,-2.4658070722204
3.4636,-2.36789914693134
3.4637,-2.2654823383296
3.4638,-2.1643538246843
3.4639,-2.09446566670995
3.464,-2.0364939340081
3.4641,-1.94792602818499
3.4642,-1.85935814478287
3.4643,-1.77529919181379
3.4644,-1.67706940462176
3.4645,-1.59462081535076
3.4646,-1.5321402549148
3.4647,-1.44421659530777
3.4648,-1.37722715221086
3.4649,-1.32988365752569
3.465,-1.29735513675588
3.4651,-1.26353836009721
3.4652,-1.23841732753877
3.4653,-1.25419848886662
3.4654,-1.22102584421341
3.4655,-1.20910945784276
3.4656,-1.20814326436573
3.4657,-1.15435849705956
3.4658,-1.16595281767533
3.4659,-1.1057267661827
3.466,-1.02424447203749
3.4661,-0.986885005209107
3.4662,-0.879637583574035
3.4663,-0.811037891304322
3.4664,-0.762728253231248
3.4665,-0.677059170147283
3.4666,-0.605560920645798
3.4667,-0.560471937921351
3.4668,-0.506365161994976
3.4669,-0.46481888999007
3.467,-0.383014608140894
3.4671,-0.317313536466191
3.4672,-0.245493252096315
3.4673,-0.135025289819153
3.4674,-0.0564416722139756
3.4675,0.0662647062948127
3.4676,0.161595640490043
3.4677,0.250163228006124
3.4678,0.400889153620383
3.4679,0.483981649516107
3.468,0.57448161570096
3.4681,0.699442424184161
3.4682,0.84630358494594
3.4683,1.00540318519117
3.4684,1.17867361651225
3.4685,1.33423054736364
3.4686,1.4891433729324
3.4687,1.62086760540125
3.4688,1.75999933722889
3.4689,1.91265779743812
3.469,2.03665256590386
3.4691,2.15291781494042
3.4692,2.26564038003077
3.4693,2.37997329381558
3.4694,2.5393952915576
3.4695,2.63182787078737
3.4696,2.71427646085831
3.4697,2.8269991707601
3.4698,2.96355472794418
3.4699,3.05051230354209
3.47,3.16548957662787
3.4701,3.28239928250779
3.4702,3.40252968712802
3.4703,3.51267610587796
3.4704,3.557765295216
3.4705,3.59898970316851
3.4706,3.56871552799045
3.4707,3.66147045807928
3.4708,3.6856253929021
3.4709,3.69689769655225
3.471,3.68272680061047
3.4711,3.67531928711638
3.4712,3.65696153714852
3.4713,3.67886201093627
3.4714,3.65019815589119
3.4715,3.67081036595755
3.4716,3.68401506384739
3.4717,3.69689769655225
3.4718,3.64858782704491
3.4719,3.67821787932923
3.472,3.70881413234916
3.4721,3.6933549724975
3.4722,3.70366107896718
3.4723,3.69979628899512
3.4724,3.7152554492149
3.4725,3.67950614254483
3.4726,3.66050426073074
3.4727,3.67531928711638
3.4728,3.61155026617026
3.4729,3.55583290124093
3.473,3.52201600880012
3.4731,3.47209584151639
3.4732,3.36871281239712
3.4733,3.28626406691162
3.4734,3.16226892417609
3.4735,3.01347481496699
3.4736,2.9155670380549
3.4737,2.79962365243143
3.4738,2.67176390448046
3.4739,2.52586857434891
3.474,2.37965122923085
3.4741,2.21411006146304
3.4742,2.0778768065088
3.4743,1.93423610594335
3.4744,1.80283388051145
3.4745,1.69397617416094
3.4746,1.58383022739261
3.4747,1.48044764192223
3.4748,1.38060777322616
3.4749,1.27883553024632
3.475,1.17609710436847
3.4751,1.07303662256866
3.4752,1.00025016150181
3.4753,0.94034626216457
3.4754,0.847913904730124
3.4755,0.783501114088182
3.4756,0.692679081392603
3.4757,0.601857050380855
3.4758,0.562565250033868
3.4759,0.453707639448897
3.476,0.361597352953471
3.4761,0.254672123298906
3.4762,0.121981773076332
3.4763,0.00829319000026632
3.4764,-0.0976658645085512
3.4765,-0.203302862983108
3.4766,-0.341790405800229
3.4767,-0.420374043041543
3.4768,-0.458377607686706
3.4769,-0.531486164660543
3.477,-0.636801145935934
3.4771,-0.702180178387224
3.4772,-0.793968485448028
3.4773,-0.852584182916434
3.4774,-0.962730178817601
3.4775,-1.08640290085195
3.4776,-1.20910945784276
3.4777,-1.23390842439555
3.4778,-1.3224761724001
3.4779,-1.37110792473223
3.478,-1.44164007807911
3.4781,-1.52054592514104
3.4782,-1.55114207384667
3.4783,-1.60685927675298
3.4784,-1.62553903434195
3.4785,-1.66772952451192
3.4786,-1.69735948976436
3.4787,-1.67803559912854
3.4788,-1.73214249533065
3.4789,-1.74792367481965
3.479,-1.8580698848221
3.4791,-1.98786209925956
3.4792,-2.12989284168996
3.4793,-2.21878286143993
3.4794,-2.34181184334594
3.4795,-2.46548500662293
3.4796,-2.56854601633524
3.4797,-2.64680799590464
3.4798,-2.73247751372557
3.4799,-2.84552267178817
3.48,-2.86484663537189
3.4801,-2.95116035737586
3.4802,-3.02845625323513
3.4803,-3.10897283755025
3.4804,-3.15502833599507
3.4805,-3.20076177695437
3.4806,-3.25293655864408
3.4807,-3.25197035887552
3.4808,-3.28417702003277
3.4809,-3.33280908705723
3.481,-3.32894428664435
3.4811,-3.35954062507556
3.4812,-3.35631995767468
3.4813,-3.3985107043331
3.4814,-3.4216995150931
3.4815,-3.43844699105746
3.4816,-3.45132966575134
3.4817,-3.42298778242943
3.4818,-3.44971933137289
3.4819,-3.43876905791552
3.482,-3.4049520404098
3.4821,-3.38627216630612
3.4822,-3.387238366652
3.4823,-3.34569175558212
3.4824,-3.29705968577372
3.4825,-3.30800995223056
3.4826,-3.28224462023479
3.4827,-3.26066615693959
3.4828,-3.1949645797163
3.4829,-3.19786317831724
3.483,-3.12185549355457
3.4831,-3.05776428680877
3.4832,-2.9856214412796
3.4833,-2.91476688142819
3.4834,-2.87676308031128
3.4835,-2.77660054680561
3.4836,-2.72088314129068
3.4837,-2.63972254827786
3.4838,-2.57047841062635
3.4839,-2.51282865332134
3.484,-2.3859348149375
3.4841,-2.28158560784816
3.4842,-2.17272752204247
3.4843,-2.10122903618375
3.4844,-1.99043862013234
3.4845,-1.90476931133996
3.4846,-1.80460710045133
3.4847,-1.66483094107453
3.4848,-1.56112608075058
3.4849,-1.45033582378639
3.485,-1.33181604496907
3.4851,-1.22231410221653
3.4852,-1.1746485583092
3.4853,-1.08253812786937
3.4854,-1.01522666947353
3.4855,-0.957255084975279
3.4856,-0.891231898503049
3.4857,-0.810393762773334
3.4858,-0.757253161137204
3.4859,-0.65741325405653
3.486,-0.60105202225604
3.4861,-0.502500392421035
3.4862,-0.375285070069403
3.4863,-0.260630262309796
3.4864,-0.167231691793409
3.4865,-0.0622388241852819
3.4866,0.0636881944984459
3.4867,0.140983546961605
3.4868,0.209583170075571
3.4869,0.268198809140616
3.487,0.311677441860508
3.4871,0.356766393837333
3.4872,0.460793046065183
3.4873,0.54871650075445
3.4874,0.653709344526338
3.4875,0.751938847161577
3.4876,0.843082945380542
3.4877,0.93551530262076
3.4878,1.04920388717445
3.4879,1.15806151950301
3.488,1.28881951568345
3.4881,1.42891738579294
3.4882,1.48366828302721
3.4883,1.5622519296871
3.4884,1.64759893148686
3.4885,1.76966126405077
3.4886,1.86112751149821
3.4887,1.94744074286813
3.4888,2.01893902594385
3.4889,2.08753873834268
3.489,2.15807084594884
3.4891,2.17546232597638
3.4892,2.25114747739606
3.4893,2.28142154116211
3.4894,2.321679607592
3.4895,2.35130954664757
3.4896,2.38061742298572
3.4897,2.40541639672096
3.4898,2.46371009356486
3.4899,2.58706086992384
3.49,2.70042767305188
3.4901,2.79994571734136
3.4902,2.92297453338826
3.4903,3.09399109962606
3.4904,3.22732610992667
3.4905,3.35744052166293
3.4906,3.43827895886329
3.4907,3.57612303863727
3.4908,3.66565731329565
3.4909,3.78610994496412
3.491,3.85567619567133
3.4911,3.9091391603184
3.4912,3.95551668092182
3.4913,3.9445664322323
3.4914,3.95004155651738
3.4915,3.93103965509731
3.4916,3.89432412080344
3.4917,3.85438793160024
3.4918,3.81863860618141
3.4919,3.73715592771148
3.492,3.66952210278297
3.4921,3.61766951501713
3.4922,3.57419064453674
3.4923,3.50913338415924
3.4924,3.38771467487271
3.4925,3.28723026302008
3.4926,3.15260696701155
3.4927,3.01572927067917
3.4928,2.88754738317082
3.4929,2.7020379971904
3.493,2.55227787977441
3.4931,2.37353200216346
3.4932,2.20573638519371
3.4933,2.06757074607227
3.4934,1.96289983036741
3.4935,1.81571645045091
3.4936,1.69429823835631
3.4937,1.59864517838904
3.4938,1.53809711949194
3.4939,1.47465048796245
3.494,1.39638891306778
3.4941,1.28495474711662
3.4942,1.19155617730803
3.4943,1.10878572635207
3.4944,1.02279464025482
3.4945,0.953550884976545
3.4946,0.920700360089874
3.4947,0.836641666261487
3.4948,0.778992218794929
3.4949,0.736801841693422
3.495,0.686881930435856
3.4951,0.63760614754856
3.4952,0.587364173189669
3.4953,0.550004756501024
3.4954,0.50781438081957
3.4955,0.472387347794096
3.4956,0.429552844136067
3.4957,0.369648951471104
3.4958,0.332611598189115
3.4959,0.306524418748667
3.496,0.255316251197369
3.4961,0.197988867705371
3.4962,0.10072555124574
3.4963,0.00539461413540577
3.4964,-0.0767317042127546
3.4965,-0.16916407593764
3.4966,-0.295735244244967
3.4967,-0.392354466727167
3.4968,-0.480922095955775
3.4969,-0.579151659021559
3.497,-0.731810086690007
3.4971,-0.829395554707242
3.4972,-0.940507739421918
3.4973,-1.05258613818856
3.4974,-1.17239410701954
3.4975,-1.28801526486873
3.4976,-1.37787128142392
3.4977,-1.48222022619467
3.4978,-1.59590907442843
3.4979,-1.63874369109117
3.498,-1.74470302589137
3.4981,-1.80009819128039
3.4982,-1.84325489560112
3.4983,-1.88029236978813
3.4984,-1.93407723041287
3.4985,-2.00589774577501
3.4986,-2.06580186428281
3.4987,-2.05903849553061
3.4988,-2.09285534066519
3.4989,-2.11990881926253
3.499,-2.16145523718807
3.4991,-2.21974905744301
3.4992,-2.24100537026222
3.4993,-2.32570857065524
3.4994,-2.39205405968803
3.4995,-2.444550743555
3.4996,-2.46645120341642
3.4997,-2.52313475432237
3.4998,-2.54374695744905
3.4999,-2.604617378648
3.5,-2.62256069337168
3.5001,-2.62996820634191
3.5002,-2.64864802254837
3.5003,-2.66507337923632
3.5004,-2.64381703547593
3.5005,-2.63190060106271
3.5006,-2.62288275914884
3.5007,-2.61000012835675
3.5008,-2.5761832253844
3.5009,-2.50275225013695
3.501,-2.42996542488703
3.5011,-2.34622839165766
3.5012,-2.24799843999367
3.5013,-2.18938254922009
3.5014,-2.20162103101065
3.5015,-2.14364927930377
3.5016,-2.1246474296228
3.5017,-2.14558167085902
3.5018,-2.23092897616931
3.5019,-2.279882912663
3.502,-2.33012511872675
3.5021,-2.38197766064871
3.5022,-2.49309028112525
3.5023,-2.54880764027042
3.5024,-2.59518510368967
3.5025,-2.61869590407525
3.5026,-2.64961421997314
3.5027,-2.68310906615825
3.5028,-2.69277104179111
3.5029,-2.71692598239579
3.503,-2.6847193954063
3.5031,-2.63673158792438
3.5032,-2.56974191099898
3.5033,-2.51853346689291
3.5034,-2.40870909882488
3.5035,-2.35685655226342
3.5036,-2.27054301628876
3.5037,-2.20774027208287
3.5038,-2.15266710666032
3.5039,-2.09115264643277
3.504,-2.0122466801367
3.5041,-1.92561117080583
3.5042,-1.83350057823753
3.5043,-1.80097201790262
3.5044,-1.73366045154296
3.5045,-1.66345031358033
3.5046,-1.5806796623265
3.5047,-1.5017738040884
3.5048,-1.40579853488294
3.5049,-1.33075748305087
3.505,-1.24476624961967
3.5051,-1.18228573746829
3.5052,-1.11851697526417
3.5053,-1.04379803136065
3.5054,-0.97165561235694
3.5055,-0.9400933068935
3.5056,-0.886630630031379
3.5057,-0.826404608044895
3.5058,-0.755550471745994
3.5059,-0.70659670920046
3.506,-0.628979237342266
3.5061,-0.56553259619238
3.5062,-0.4627941370986
3.5063,-0.37487063778892
3.5064,-0.257317253626165
3.5065,-0.168105515669638
3.5066,-0.0940307922413208
3.5067,-0.00449700124190599
3.5068,0.0718321620461192
3.5069,0.132702252108893
3.507,0.189707573047172
3.5071,0.242203997448831
3.5072,0.295666612809836
3.5073,0.371673703309184
3.5074,0.441883641963091
3.5075,0.517246603172094
3.5076,0.595830203759987
3.5077,0.648970753624413
3.5078,0.748488511944197
3.5079,0.792289208938545
3.508,0.84575182522806
3.5081,0.896637930899523
3.5082,0.936573862724127
3.5083,1.02224288048188
3.5084,1.10018236652151
3.5085,1.14398307118862
3.5086,1.17747772863524
3.5087,1.20614142655418
3.5088,1.29986206155786
3.5089,1.37007202697536
3.509,1.40710939599341
3.5091,1.53110407682871
3.5092,1.62353648691422
3.5093,1.70920555969264
3.5094,1.84350634486614
3.5095,1.97716302912261
3.5096,2.09439445892304
3.5097,2.18618282114145
3.5098,2.32789120218002
3.5099,2.43224012772466
3.51,2.57105000158089
3.5101,2.6831285409688
3.5102,2.83417696755507
3.5103,2.93723776264858
3.5104,3.0692844501097
3.5105,3.16139509664228
3.5106,3.22290956383284
3.5107,3.270897297779
3.5108,3.32242775853206
3.5109,3.37750094801752
3.511,3.40133379335918
3.5111,3.38233193002858
3.5112,3.344650272389
3.5113,3.344650272389
3.5114,3.29634046170593
3.5115,3.26059120665124
3.5116,3.23096119653722
3.5117,3.1768542286558
3.5118,3.06735205919585
3.5119,3.01324511806197
3.512,2.87540128209582
3.5121,2.72403077432435
3.5122,2.53658907745808
3.5123,2.39745714992054
3.5124,2.24286616870655
3.5125,2.07893536788008
3.5126,1.99004560265375
3.5127,1.89181598646104
3.5128,1.85864336550674
3.5129,1.86476258671775
3.513,1.87989960786022
3.5131,1.9085633297427
3.5132,2.00325024081747
3.5133,2.15075573208561
3.5134,2.33594281597425
3.5135,2.51114596704304
3.5136,2.69987591159382
3.5137,2.87314682727495
3.5138,3.0322469595089
3.5139,3.13981672609808
3.514,3.21002695192877
3.5141,3.25060718119355
3.5142,3.23096119653722
3.5143,3.1948898836037
3.5144,3.13885053043529
3.5145,3.06187695166656
3.5146,2.93111852711982
3.5147,2.79166439796778
3.5148,2.65188825533577
3.5149,2.49826338006332
3.515,2.3407737843164
3.5151,2.20196397977283
3.5152,2.06573072795724
3.5153,1.87732309359773
3.5154,1.75042977873714
3.5155,1.61548488282539
3.5156,1.50211830574441
3.5157,1.33883181242666
3.5158,1.16040833579334
3.5159,0.992290930212453
3.516,0.856057871861598
3.5161,0.682143339505826
3.5162,0.500821342412672
3.5163,0.333992222155534
3.5164,0.198403299856277
3.5165,0.0190136696581058
3.5166,-0.155867082815306
3.5167,-0.26569091891473
3.5168,-0.377447150471664
3.5169,-0.510781691658128
3.517,-0.645726574972648
3.5171,-0.77068749113724
3.5172,-0.84508433617308
3.5173,-0.935906470581708
3.5174,-1.02544036136296
3.5175,-1.09565040081243
3.5176,-1.18711670462466
3.5177,-1.25313992710577
3.5178,-1.26312392737351
3.5179,-1.29758483311147
3.518,-1.34653864743931
3.5181,-1.38518639924415
3.5182,-1.39066149768139
3.5183,-1.39903517777254
3.5184,-1.46119365413439
3.5185,-1.47311004697963
3.5186,-1.49404425142137
3.5187,-1.51304606864535
3.5188,-1.55330415880207
3.5189,-1.59935941871746
3.519,-1.69887744583166
3.5191,-1.78358051156618
3.5192,-1.90016803273267
3.5193,-2.017721787406
3.5194,-2.10628971149004
3.5195,-2.22674212669403
3.5196,-2.30049509876729
3.5197,-2.41064149203975
3.5198,-2.51756726992352
3.5199,-2.58745552591719
3.52,-2.69341517351231
3.5201,-2.76716826588123
3.5202,-2.796798334998
3.5203,-2.87151765477621
3.5204,-2.94559286414122
3.5205,-2.98585113931147
3.5206,-3.02739768619088
3.5207,-3.04897612806188
3.5208,-3.0805386285981
3.5209,-3.13464578206368
3.521,-3.20227974135069
3.5211,-3.23674086150453
3.5212,-3.26733718746733
3.5213,-3.292780451132
3.5214,-3.30244245074023
3.5215,-3.33014018524573
3.5216,-3.3935873342037
3.5217,-3.47217164556335
3.5218,-3.50920934316512
3.5219,-3.52466855796836
3.522,-3.55011185143951
3.5221,-3.55494285687329
3.5222,-3.58650542842526
3.5223,-3.56589313626472
3.5224,-3.51436241464201
3.5225,-3.49052946009955
3.5226,-3.41709821128013
3.5227,-3.39423146778877
3.5228,-3.36331305782265
3.5229,-3.30856171737258
3.523,-3.21999340060011
3.5231,-3.13239131708971
3.5232,-3.05992638288142
3.5233,-2.99100419900695
3.5234,-2.92208203445669
3.5235,-2.82578427544178
3.5236,-2.72207903667408
3.5237,-2.60162641866476
3.5238,-2.49695506869077
3.5239,-2.39421615011664
3.524,-2.26184725095246
3.5241,-2.14880232347673
3.5242,-2.08342308156467
3.5243,-1.97585332227798
3.5244,-1.86602914145649
3.5245,-1.75910357808788
3.5246,-1.65829727642754
3.5247,-1.54718492884936
3.5248,-1.45926126613618
3.5249,-1.35104755164895
3.525,-1.2541061206711
3.5251,-1.20193167085901
3.5252,-1.13526432619516
3.5253,-1.08308988850236
3.5254,-0.996132503490161
3.5255,-0.92785486237273
3.5256,-0.895648430616882
3.5257,-0.802893916517271
3.5258,-0.721733727512839
3.5259,-0.63155575079947
3.526,-0.526240770215282
3.5261,-0.400635764928536
3.5262,-0.286947146473032
3.5263,-0.196447150108411
3.5264,-0.115287016806769
3.5265,-0.0396019762260265
3.5266,0.0183695416925624
3.5267,0.0956648959347737
3.5268,0.131736060216716
3.5269,0.156534985320247
3.527,0.158145305123091
3.5271,0.205810770819762
3.5272,0.221913968498841
3.5273,0.267969113388144
3.5274,0.27956341549716
3.5275,0.325296495694981
3.5276,0.404846289082272
3.5277,0.49373593580933
3.5278,0.6193408712335
3.5279,0.733995634380556
3.528,0.918216216551492
3.5281,1.0389902077415
3.5282,1.16427310396471
3.5283,1.28665743554669
3.5284,1.41516099813926
3.5285,1.50179624162669
3.5286,1.56524287515326
3.5287,1.65477671157213
3.5288,1.73561482474237
3.5289,1.78907748629807
3.529,1.82933551735199
3.5291,1.83867538090632
3.5292,1.92466654486347
3.5293,2.01484455750166
3.5294,2.08408839817941
3.5295,2.14238205684003
3.5296,2.20357430210944
3.5297,2.30341429707923
3.5298,2.42032373688046
3.5299,2.54077591855724
3.53,2.68924777246134
3.5301,2.86380694316488
3.5302,3.018720224812
3.5303,3.20326358088681
3.5304,3.35173571192968
3.5305,3.42613283715112
3.5306,3.49827552186296
3.5307,3.57138442160629
3.5308,3.66671587885788
3.5309,3.72758631987958
3.531,3.78459198350095
3.5311,3.7736417420823
3.5312,3.75721638080305
3.5313,3.72565392471584
3.5314,3.69827832805188
3.5315,3.73821449352889
3.5316,3.69956659136212
3.5317,3.68442949785308
3.5318,3.66800414201881
3.5319,3.6947356039803
3.532,3.68249710299771
3.5321,3.66671587885788
3.5322,3.63579756480885
3.5323,3.59167456011469
3.5324,3.53177034585576
3.5325,3.45962765284273
3.5326,3.41550467527295
3.5327,3.32693667425674
3.5328,3.27154142848573
3.5329,3.20326358088681
3.533,3.11823835697034
3.5331,3.03289108974586
3.5332,2.94045841296908
3.5333,2.90792984606532
3.5334,2.83385490261581
3.5335,2.74335466558336
3.5336,2.66412671745883
3.5337,2.58425465549662
3.5338,2.48538079346498
3.5339,2.38135392035227
3.534,2.26380036118378
3.5341,2.15848527858406
3.5342,2.01838726542389
3.5343,1.87474657934572
3.5344,1.71790129319902
3.5345,1.64092795203086
3.5346,1.55010586062967
3.5347,1.42482292080348
3.5348,1.33528910774343
3.5349,1.19068235343938
3.535,1.04124465565469
3.5351,0.907588105681617
3.5352,0.755251854826333
3.5353,0.652191393022301
3.5354,0.502753726031587
3.5355,0.357824953856418
3.5356,0.190351700959931
3.5357,0.0605599229435967
3.5358,-0.0901660241732241
3.5359,-0.22285640097835
3.536,-0.35651298512189
3.5361,-0.494034356875787
3.5362,-0.623504146274972
3.5363,-0.707884966065397
3.5364,-0.826404608044895
3.5365,-0.898547009404756
3.5366,-0.946534593584889
3.5367,-1.00547237011978
3.5368,-1.06118950876306
3.5369,-1.08405608174656
3.537,-1.09436214312607
3.5371,-1.14138355070755
3.5372,-1.18099747956769
3.5373,-1.1974227680459
3.5374,-1.25668263685471
3.5375,-1.28792289667321
3.5376,-1.35201374541388
3.5377,-1.42029144332056
3.5378,-1.46892320621298
3.5379,-1.50112967469415
3.538,-1.5507276409163
3.5381,-1.54976144671324
3.5382,-1.55845719462143
3.5383,-1.55910132410334
3.5384,-1.58390030991934
3.5385,-1.58486650420213
3.5386,-1.67923149027908
3.5387,-1.72464263494621
3.5388,-1.72721915395224
3.5389,-1.77810540788681
3.539,-1.84412872233645
3.5391,-1.94364681409372
3.5392,-2.03350297944058
3.5393,-2.15975254261703
3.5394,-2.26410170860881
3.5395,-2.35911101062208
3.5396,-2.43930532622015
3.5397,-2.53431468452553
3.5398,-2.62996820634191
3.5399,-2.72111283898931
3.54,-2.77844057438866
3.5401,-2.85412608702464
3.5402,-2.92626889437573
3.5403,-2.98295254328018
3.5404,-3.08086069495146
3.5405,-3.13786644634955
3.5406,-3.20421214047566
3.5407,-3.28118605214645
3.5408,-3.2860170516517
3.5409,-3.31017205072448
3.541,-3.30952791738234
3.5411,-3.34237872018579
3.5412,-3.30695138403218
3.5413,-3.30308658406214
3.5414,-3.31049411739624
3.5415,-3.35139658846519
3.5416,-3.38263706354521
3.5417,-3.38875633237566
3.5418,-3.39938453653707
3.5419,-3.43835462286194
3.542,-3.47442611393104
3.5421,-3.47056131102939
3.5422,-3.46089930407729
3.5423,-3.41387754303875
3.5424,-3.38328119709833
3.5425,-3.3597703236227
3.5426,-3.31242651743647
3.5427,-3.24608079215427
3.5428,-3.13303544993722
3.5429,-3.0596043165561
3.543,-2.92401443133371
3.5431,-2.85670261550567
3.5432,-2.70855226940588
3.5433,-2.65251281226801
3.5434,-2.58681139444587
3.5435,-2.50210811885935
3.5436,-2.3922837570092
3.5437,-2.27601812792216
3.5438,-2.1848736349948
3.5439,-2.16812623985773
3.544,-2.10983242894438
3.5441,-2.04638558572896
3.5442,-1.98293875447955
3.5443,-1.89920183765185
3.5444,-1.82319449940535
3.5445,-1.79903962826964
3.5446,-1.73752523014934
3.5447,-1.64895739675873
3.5448,-1.53945537535296
3.5449,-1.47504243503941
3.545,-1.45732887814653
3.5451,-1.36425219994517
3.5452,-1.26666663719533
3.5453,-1.17970922167037
3.5454,-1.0930738854428
3.5455,-1.03993325867911
3.5456,-0.997420760947195
3.5457,-0.904344167021904
3.5458,-0.792265795968266
3.5459,-0.666982811741066
3.546,-0.571007686849606
3.5461,-0.461183816521879
3.5462,-0.334612628000061
3.5463,-0.205142878988644
3.5464,-0.0653670959835602
3.5465,0.035116868719659
3.5466,0.108547454677012
3.5467,0.228033183593379
3.5468,0.307582978778141
3.5469,0.411287567855286
3.547,0.496634511238108
3.5471,0.576828431456127
3.5472,0.667650462155526
3.5473,0.7604048779831
3.5474,0.880856796747273
3.5475,0.962661044411332
3.5476,1.0982499825227
3.5477,1.22417701209656
3.5478,1.33432291555916
3.5479,1.42675530534809
3.548,1.51306848581744
3.5481,1.56427668272858
3.5482,1.60807740713665
3.5483,1.64028382368621
3.5484,1.63191015525487
3.5485,1.57168415801352
3.5486,1.53786742355623
3.5487,1.48440477944512
3.5488,1.412262421359
3.5489,1.34173038899457
3.549,1.31886384073056
3.5491,1.24124640580202
3.5492,1.2000222100903
3.5493,1.17522328051137
3.5494,1.17618947256398
3.5495,1.24092434176759
3.5496,1.25767167167417
3.5497,1.35718946415986
3.5498,1.46057203552413
3.5499,1.65767528918247
3.55,1.83642093107065
3.5501,2.02450648825015
3.5502,2.21935546127748
3.5503,2.39584682693834
3.5504,2.58167813762666
3.5505,2.79102026816244
3.5506,3.02644978743075
3.5507,3.24642033190218
3.5508,3.4206577234088
3.5509,3.61679568601735
3.551,3.80294974219367
3.5511,3.98137434204057
3.5512,4.18878504893219
3.5513,4.3317825988823
3.5514,4.41938474602645
3.5515,4.50215592430827
3.5516,4.55175423303917
3.5517,4.5955553464207
3.5518,4.60264082149438
3.5519,4.60264082149438
3.552,4.57751959275832
3.5521,4.54660116146875
3.5522,4.48637464664867
3.5523,4.42357161421668
3.5524,4.36849820049268
3.5525,4.28701533831593
3.5526,4.18878504893219
3.5527,4.06994255693087
3.5528,3.9887818642488
3.5529,3.85383616776262
3.553,3.74240134993078
3.5531,3.62323700071609
3.5532,3.52017598326269
3.5533,3.39682487652766
3.5534,3.26928697101795
3.5535,3.12242520460134
3.5536,2.95784992520456
3.5537,2.81614133138452
3.5538,2.64963380182731
3.5539,2.47893950030806
3.554,2.35269017310505
3.5541,2.20357430210944
3.5542,2.08408839817941
3.5543,1.92724305932196
3.5544,1.79873941353006
3.5545,1.64253827289484
3.5546,1.50437275457172
3.5547,1.39422683269904
3.5548,1.23319480496741
3.5549,1.06411119895114
3.555,0.873771389611355
3.5551,0.677312380384757
3.5552,0.490515296443756
3.5553,0.31144774611172
3.5554,0.142042107045322
3.5555,-0.017701624769677
3.5556,-0.212228287752642
3.5557,-0.397415123997865
3.5558,-0.558125120657162
3.5559,-0.675034416738962
3.556,-0.785180382364282
3.5561,-0.857644843327298
3.5562,-0.947822850931606
3.5563,-1.06602047480614
3.5564,-1.15587645115617
3.5565,-1.27278586331238
3.5566,-1.31143360901578
3.5567,-1.40837505190419
3.5568,-1.44058151592673
3.5569,-1.49694283365515
3.557,-1.56844120170345
3.5571,-1.61900537032856
3.5572,-1.69791125127317
3.5573,-1.73172806225439
3.5574,-1.70403048351747
3.5575,-1.7368811003789
3.5576,-1.73398251642533
3.5577,-1.74525478747933
3.5578,-1.7252867646961
3.5579,-1.74750924173008
3.558,-1.76715520076722
3.5581,-1.80129408284242
3.5582,-1.8109560311664
3.5583,-1.81836352505206
3.5584,-1.8367212279319
3.5585,-1.88084413161204
3.5586,-1.95234257101017
3.5587,-2.02126450392131
3.5588,-2.06925221310738
3.5589,-2.07730384283857
3.559,-2.16393939121013
3.5591,-2.27086508167628
3.5592,-2.33721055871058
3.5593,-2.41289595080645
3.5594,-2.46539263842742
3.5595,-2.51660107295741
3.5596,-2.53463675020066
3.5597,-2.5549268884756
3.5598,-2.55557101987338
3.5599,-2.51917759820766
3.56,-2.45959545773424
3.5601,-2.38004526762091
3.5602,-2.29791857542855
3.5603,-2.23350549895108
3.5604,-2.20741820676033
3.5605,-2.17005863155964
3.5606,-2.13914036571963
3.5607,-2.07279493016512
3.5608,-2.03285884913907
3.5609,-2.0077377683339
3.561,-1.99356690305493
3.5611,-2.03640156581258
3.5612,-2.0640991701815
3.5613,-2.12593569058308
3.5614,-2.20065483506267
3.5615,-2.29759651001273
3.5616,-2.39486028115526
3.5617,-2.51692313861242
3.5618,-2.61064425988204
3.5619,-2.71885837773847
3.562,-2.8950284797383
3.5621,-3.00678544499701
3.5622,-3.09213301759201
3.5623,-3.15622423361964
3.5624,-3.17651442122018
3.5625,-3.23802912777845
3.5626,-3.25316625703899
3.5627,-3.29052598461613
3.5628,-3.2715240534442
3.5629,-3.23770706120929
3.563,-3.21709480172097
3.5631,-3.10984666853083
3.5632,-2.9913262652415
3.5633,-2.87924724082472
3.5634,-2.76459173829039
3.5635,-2.6145090490654
3.5636,-2.44961142459
3.5637,-2.27440780096109
3.5638,-2.07633764726054
3.5639,-1.92786562616629
3.564,-1.80097201790262
3.5641,-1.69952157553865
3.5642,-1.55652480618169
3.5643,-1.4795513405458
3.5644,-1.4154604737891
3.5645,-1.37616859019747
3.5646,-1.31594251288618
3.5647,-1.27375205691691
3.5648,-1.23188366915129
3.5649,-1.18196367299283
3.565,-1.12689065066284
3.5651,-1.06376602398071
3.5652,-0.97165561235694
3.5653,-0.941703628559763
3.5654,-0.898869073715371
3.5655,-0.890495401694624
3.5656,-0.825760479498489
3.5657,-0.752973957840841
3.5658,-0.688239049129765
3.5659,-0.655710564893393
3.566,-0.576160713385066
3.5661,-0.493068164494582
3.5662,-0.360055689995745
3.5663,-0.278895545076244
3.5664,-0.186463165174857
3.5665,-0.125593065199455
3.5666,-0.0260752885260443
3.5667,0.0918001282964108
3.5668,0.174892631009635
3.5669,0.248967340402552
3.567,0.276664839973443
3.5671,0.364588296616646
3.5672,0.458308902764266
3.5673,0.57264160027419
3.5674,0.722723396312268
3.5675,0.869262494172074
3.5676,0.978764243158042
3.5677,1.08118059064156
3.5678,1.19647950583531
3.5679,1.32562718594046
3.568,1.39229444821952
3.5681,1.46701331760298
3.5682,1.49921972868925
3.5683,1.51371261406133
3.5684,1.50791545988355
3.5685,1.51854357590582
3.5686,1.4988976645726
3.5687,1.54076600074172
3.5688,1.56620906757907
3.5689,1.60517882971216
3.569,1.59100800690012
3.5691,1.62707919273962
3.5692,1.75107390717879
3.5693,1.80582482692167
3.5694,1.89503662936491
3.5695,1.98940147397048
3.5696,2.07378233762885
3.5697,2.20647288232814
3.5698,2.38489663080901
3.5699,2.50534880285481
3.57,2.64319250615805
3.5701,2.7990718908079
3.5702,2.93949221786987
3.5703,3.02902630834228
3.5704,3.14947868288235
3.5705,3.24287761331438
3.5706,3.37750094801752
3.5707,3.47766332441371
3.5708,3.55431494113393
3.5709,3.56365484541581
3.571,3.55753559774809
3.5711,3.62323700071609
3.5712,3.62066047481868
3.5713,3.67766611591923
3.5714,3.68893841923565
3.5715,3.71083889558826
3.5716,3.73273937371754
3.5717,3.72919664919331
3.5718,3.73016284678619
3.5719,3.70826236886656
3.572,3.68314123461464
3.5721,3.6960238672737
3.5722,3.65769803690104
3.5723,3.64223887994944
3.5724,3.60004826849795
3.5725,3.51792152392402
3.5726,3.49022388206006
3.5727,3.39682487652766
3.5728,3.3250042817952
3.5729,3.22580815158294
3.573,3.13498574781251
3.5731,3.0303145688053
3.5732,2.94496732346676
3.5733,2.84963608496825
3.5734,2.67733137437844
3.5735,2.52435061909566
3.5736,2.39391443936716
3.5737,2.30534668427868
3.5738,2.15333224757249
3.5739,2.03126983987116
3.574,1.94785517538249
3.5741,1.84994763020179
3.5742,1.77522872417217
3.5743,1.65992973844264
3.5744,1.54978379649387
3.5745,1.45316456118959
3.5746,1.38649729480365
3.5747,1.29664142105283
3.5748,1.1993780820432
3.5749,1.18102043283776
3.575,1.10436919852763
3.5751,1.02965035213381
3.5752,0.981984882923902
3.5753,0.900502698463563
3.5754,0.799696679811704
3.5755,0.719502756869833
3.5756,0.64252947483337
3.5757,0.542045526281403
3.5758,0.450901432209445
3.5759,0.376504662412865
3.576,0.286970886269558
3.5761,0.198725363811629
3.5762,0.121430013340682
3.5763,-0.00288668130675927
3.5764,-0.0766393360172389
3.5765,-0.145561034186578
3.5766,-0.223822593094561
3.5767,-0.309491630707435
3.5768,-0.401279893115993
3.5769,-0.466336842377762
3.577,-0.542343977353107
3.5771,-0.624792402993115
3.5772,-0.711105608238056
3.5773,-0.775840519092964
3.5774,-0.863119936267956
3.5775,-0.962315746276997
3.5776,-1.0930738854428
3.5777,-1.19774483253121
3.5778,-1.26892108891364
3.5779,-1.33752083915174
3.578,-1.38389814079795
3.5781,-1.40386614712672
3.5782,-1.47278798230384
3.5783,-1.50499445107425
3.5784,-1.5504055761817
3.5785,-1.60064767781038
3.5786,-1.64992359119705
3.5787,-1.67246812875936
3.5788,-1.74010174924196
3.5789,-1.84380665735922
3.579,-1.91916986985522
3.5791,-1.98938005660727
3.5792,-2.08374514676391
3.5793,-2.20677407611623
3.5794,-2.33624436233938
3.5795,-2.40548844349492
3.5796,-2.51305835077645
3.5797,-2.59099824903618
3.5798,-2.63640952213095
3.5799,-2.71080673056964
3.58,-2.82385187931118
3.5801,-2.89921533920711
3.5802,-2.98359667572863
3.5803,-3.06572357681067
3.5804,-3.14237537642364
3.5805,-3.22224786642017
3.5806,-3.3214443845103
3.5807,-3.37490746105402
3.5808,-3.44189735832677
3.5809,-3.52853336184402
3.581,-3.56782553856916
3.5811,-3.58972609925772
3.5812,-3.65478366070364
3.5813,-3.68280350781426
3.5814,-3.6924655249446
3.5815,-3.70341581157661
3.5816,-3.68892278527728
3.5817,-3.71951917533727
3.5818,-3.77008374584891
3.5819,-3.7584893209196
3.582,-3.76074379238137
3.5821,-3.70405994610264
3.5822,-3.68731244908511
3.5823,-3.65059678732425
3.5824,-3.60840599106133
3.5825,-3.55719732611342
3.5826,-3.45864483585046
3.5827,-3.38038259612406
3.5828,-3.2924583844855
3.5829,-3.20807693877394
3.583,-3.07828416413669
3.5831,-2.97329055675531
3.5832,-2.86443220110467
3.5833,-2.74011472743462
3.5834,-2.66893816918974
3.5835,-2.51821140123608
3.5836,-2.39808093636936
3.5837,-2.25379561659909
3.5838,-2.14783612768805
3.5839,-2.07537145168532
3.584,-1.98970212171682
3.5841,-1.84509491726985
3.5842,-1.82641514900938
3.5843,-1.74525478747933
3.5844,-1.64509261902888
3.5845,-1.58647682801182
3.5846,-1.48856915169989
3.5847,-1.40612059950979
3.5848,-1.34814897036628
3.5849,-1.29565244580814
3.585,-1.2045081867704
3.5851,-1.12656858622196
3.5852,-1.00353998390795
3.5853,-0.910785453328151
3.5854,-0.811589651640434
3.5855,-0.701121617550718
3.5856,-0.591297729028218
3.5857,-0.515290589541022
3.5858,-0.453132213682294
3.5859,-0.392906226713394
3.586,-0.333324371713643
3.5861,-0.224466721172481
3.5862,-0.182920460863196
3.5863,-0.113676696752478
3.5864,-0.0222105206330462
3.5865,0.0747307378046755
3.5866,0.181978038081691
3.5867,0.259595450729837
3.5868,0.33560254186867
3.5869,0.393574051216353
3.587,0.462817797882741
3.5871,0.511127388379625
3.5872,0.602915610389816
3.5873,0.7050098794085
3.5874,0.800984935617556
3.5875,0.914029384990492
3.5876,1.02127668852967
3.5877,1.08214678262968
3.5878,1.15976420776587
3.5879,1.22063430777275
3.588,1.27957202653188
3.5881,1.34173038899457
3.5882,1.41870370310479
3.5883,1.48730335645164
3.5884,1.49632115164366
3.5885,1.50276243398019
3.5886,1.53915568008188
3.5887,1.60711121466064
3.5888,1.62675712857301
3.5889,1.65058987726566
3.589,1.67667707601574
3.5891,1.73239418261077
3.5892,1.77780523803477
3.5893,1.82708106754847
3.5894,1.875712772189
3.5895,1.96653490617114
3.5896,2.02547268133396
3.5897,2.11822722513912
3.5898,2.22547468639307
3.5899,2.33851933241726
3.59,2.43352838621316
3.5901,2.5497937302953
3.5902,2.67990789285263
3.5903,2.77105224473825
3.5904,2.83739761696304
3.5905,2.91662560128523
3.5906,2.97137665753495
3.5907,3.00422729536868
3.5908,3.05833423507713
3.5909,3.05318119283125
3.591,3.07153890618983
3.5911,3.08989662054692
3.5912,3.06864031980386
3.5913,3.08764216434378
3.5914,3.12854444354195
3.5915,3.11791629177015
3.5916,3.12596792186894
3.5917,3.17814248969015
3.5918,3.23675837221069
3.5919,3.19907673221799
3.592,3.20519597259853
3.5921,3.13337542173307
3.5922,3.08409944748375
3.5923,2.91276082116156
3.5924,2.7981056960814
3.5925,2.68828157800888
3.5926,2.55655708922463
3.5927,2.44641097130151
3.5928,2.33884139697362
3.5929,2.21871133232225
3.593,2.18553869222799
3.5931,2.13980554140648
3.5932,2.07829123909605
3.5933,2.05349228147924
3.5934,2.05928944030383
3.5935,2.04254209275156
3.5936,2.10695497071721
3.5937,2.16943546965173
3.5938,2.25027365209765
3.5939,2.35140191484309
3.594,2.49729718605525
3.5941,2.55720121865211
3.5942,2.66863562465072
3.5943,2.75172835209456
3.5944,2.83160044804877
3.5945,2.84480511070737
3.5946,2.80970003296275
3.5947,2.72370870947816
3.5948,2.60647712278783
3.5949,2.46058181532776
3.595,2.2976171355273
3.5951,2.11307419451707
3.5952,1.96621284184225
3.5953,1.80163799172667
3.5954,1.65187813397288
3.5955,1.49567702341261
3.5956,1.3633086814769
3.5957,1.17361296042528
3.5958,1.03931227172891
3.5959,0.896637930899523
3.596,0.728842611259752
3.5961,0.566844449408751
3.5962,0.425780445076485
3.5963,0.281817863125118
3.5964,0.125938908854864
3.5965,0.0103179421029354
3.5966,-0.0676215439833803
3.5967,-0.144594842131837
3.5968,-0.270521879687033
3.5969,-0.378735406815616
3.597,-0.447335059682979
3.5971,-0.543954298084328
3.5972,-0.657642950054963
3.5973,-0.732039782722103
3.5974,-0.805792494878762
3.5975,-0.923345961823183
3.5976,-0.984860250865048
3.5977,-1.07085144089207
3.5978,-1.19645657459121
3.5979,-1.24541037865197
3.598,-1.30563644696002
3.5981,-1.34009735578745
3.5982,-1.39323801461596
3.5983,-1.41803699086603
3.5984,-1.47375417633193
3.5985,-1.54718492884936
3.5986,-1.59420638238646
3.5987,-1.60258006645741
3.5988,-1.67021367494528
3.5989,-1.76618900603665
3.599,-1.91401682917915
3.5991,-2.02029830850438
3.5992,-2.20290929227919
3.5993,-2.36394199287631
3.5994,-2.48825929674166
3.5995,-2.60677947075285
3.5996,-2.70661987413778
3.5997,-2.81902088904795
3.5998,-2.89889327309166
3.5999,-3.00420891497006
3.6,-3.08902772825162
3.6001,-3.16374713634449
3.6002,-3.22944870450946
3.6003,-3.29096342502618
3.6004,-3.38146416995044
3.6005,-3.42751972334172
3.6006,-3.45328507212051
3.6007,-3.49064483328304
3.6008,-3.46133674423964
3.6009,-3.45618367404899
3.601,-3.50223924323554
3.6011,-3.52059706027556
3.6012,-3.56021130243091
3.6013,-3.58887527088865
3.6014,-3.604334491454
3.6015,-3.6420163463749
3.6016,-3.66295071317446
3.6017,-3.70481945315597
3.6018,-3.66391691477025
3.6019,-3.62043784742397
3.602,-3.61850544464199
3.6021,-3.6413722120454
3.6022,-3.66971412444005
3.6023,-3.67712167036669
3.6024,-3.59145180757042
3.6025,-3.62043784742397
3.6026,-3.57953532568201
3.6027,-3.49708617206831
3.6028,-3.45360713899954
3.6029,-3.41302671598912
3.603,-3.33089969229906
3.6031,-3.22783837173359
3.6032,-3.11414890593008
3.6033,-2.99562850090278
3.6034,-2.89611005290215
3.6035,-2.7965916440923
3.6036,-2.6903098902616
3.6037,-2.5872488357641
3.6038,-2.42943666971094
3.6039,-2.30028840956606
3.604,-2.16727542050169
3.6041,-2.05938356921316
3.6042,-1.91638666143571
3.6043,-1.86743277850395
3.6044,-1.72379181762953
3.6045,-1.6274944323757
3.6046,-1.52507784055474
3.6047,-1.41911856255503
3.6048,-1.36726615918458
3.6049,-1.29222511373117
3.605,-1.19592782370784
3.6051,-1.07418746320879
3.6052,-1.02394541775652
3.6053,-0.943107264280832
3.6054,-0.910578767431178
3.6055,-0.837792236207478
3.6056,-0.765649841787768
3.6057,-0.714763693259413
3.6058,-0.646486082025984
3.6059,-0.536662201513363
3.606,-0.441009156343714
3.6061,-0.33311768655324
3.6062,-0.248092775225346
3.6063,-0.184646160000518
3.6064,-0.127318764293641
3.6065,-0.0593632590579702
3.6066,-0.0242582836496739
3.6067,0.0649534394882269
3.6068,0.0691402711513393
3.6069,0.142892919804755
3.607,0.220832397492809
3.6071,0.24756370544948
3.6072,0.338063674239976
3.6073,0.412460444432851
3.6074,0.523894566657064
3.6075,0.630819793848984
3.6076,0.781223655482055
3.6077,0.942255635068129
3.6078,1.06625026783204
3.6079,1.19829651096644
3.608,1.37800824991518
3.6081,1.54451539155233
3.6082,1.69524142047747
3.6083,1.80635357685668
3.6084,1.95450314771011
3.6085,2.03212065464418
3.6086,2.08493921310451
3.6087,2.12165455550252
3.6088,2.13936809878165
3.6089,2.18059234725674
3.609,2.17125247817707
3.6091,2.1612684803805
3.6092,2.17479518711856
3.6093,2.17382899376849
3.6094,2.17093041372904
3.6095,2.21440911602979
3.6096,2.24532730659234
3.6097,2.34484524565458
3.6098,2.39379906150332
3.6099,2.4839771570917
3.61,2.59476741431179
3.6101,2.70491357146047
3.6102,2.78381946311587
3.6103,2.89493186905753
3.6104,2.95934487350357
3.6105,3.0401832107567
3.6106,3.12875113212118
3.6107,3.18962146271894
3.6108,3.23438853857077
3.6109,3.24694908616335
3.611,3.26530681046736
3.6111,3.26208615700317
3.6112,3.2791556207407
3.6113,3.26079789562675
3.6114,3.28946171250561
3.6115,3.27561290177519
3.6116,3.2733584442726
3.6117,3.26434061442463
3.6118,3.26756126791196
3.6119,3.27013779072566
3.612,3.27174811749499
3.6121,3.26401854907772
3.6122,3.23148995073551
3.6123,3.1979951598847
3.6124,3.19638483348975
3.6125,3.17351819954913
3.6126,3.15483841527308
3.6127,3.13680276250265
3.6128,3.11522439352223
3.6129,3.05886298859749
3.613,3.04179353639229
3.6131,3.02697854083077
3.6132,3.01924897818307
3.6133,3.02343582459567
3.6134,2.97544812643998
3.6135,2.91264544412595
3.6136,2.8343836553212
3.6137,2.78027674926613
3.6138,2.68752207095555
3.6139,2.55934029403458
3.614,2.42536139290124
3.6141,2.26014227358088
3.6142,2.12616345737242
3.6143,1.94806186128671
3.6144,1.78284288720782
3.6145,1.65272894780665
3.6146,1.53742998063412
3.6147,1.44145487479421
3.6148,1.37414348102005
3.6149,1.24596198734729
3.615,1.16190327683861
3.6151,1.14322356413528
3.6152,1.10876271549823
3.6153,1.12744242773919
3.6154,1.11971289160991
3.6155,1.12615417171472
3.6156,1.06657233182506
3.6157,1.01472002977447
3.6158,0.985734271552181
3.6159,0.903930022945441
3.616,0.772849992803606
3.6161,0.61793723630337
3.6162,0.482348318848339
3.6163,0.335165098757896
3.6164,0.165759461027268
3.6165,0.0340352976865279
3.6166,-0.0941461712825741
3.6167,-0.224582100147897
3.6168,-0.292537614393406
3.6169,-0.417498476801532
3.617,-0.562427333392691
3.6171,-0.660012778080158
3.6172,-0.740850895514645
3.6173,-0.839402557603103
3.6174,-0.961464931607562
3.6175,-1.07032269031829
3.6176,-1.18175698662103
3.6177,-1.23811827286242
3.6178,-1.27773220933267
3.6179,-1.30929453503234
3.618,-1.38143700175178
3.6181,-1.46581793720986
3.6182,-1.52411164641246
3.6183,-1.57177722675251
3.6184,-1.6155780351554
3.6185,-1.69222946133114
3.6186,-1.77435600608764
3.6187,-1.84327790450647
3.6188,-1.95632272882821
3.6189,-2.06067182991608
3.619,-2.14859563474139
3.6191,-2.28547340071052
3.6192,-2.44747234143994
3.6193,-2.6204216084476
3.6194,-2.73089019123699
3.6195,-2.83588369733055
3.6196,-2.95472609189142
3.6197,-3.04683703833428
3.6198,-3.10867377723591
3.6199,-3.2178543087743
3.62,-3.27582629330735
3.6201,-3.31705082462004
3.6202,-3.39144824014752
3.6203,-3.46455741317099
3.6204,-3.49869650679478
3.6205,-3.5070702475672
3.6206,-3.52188532819717
3.6207,-3.5573126990957
3.6208,-3.58887527088865
3.6209,-3.6455590852229
3.621,-3.68130854426931
3.6211,-3.69741190622921
3.6212,-3.75989296267373
3.6213,-3.77696253299537
3.6214,-3.81979749888211
3.6215,-3.87165036467651
3.6216,-3.87132829714504
3.6217,-3.93574181399197
3.6218,-3.95474380553951
3.6219,-3.94765831694739
3.622,-3.94057282861515
3.6221,-3.91577362149295
3.6222,-3.89419509319276
3.6223,-3.85619112376092
3.6224,-3.80466032943665
3.6225,-3.77019911816643
3.6226,-3.66810378840431
3.6227,-3.57309398440166
3.6228,-3.46810014905078
3.6229,-3.38210830349793
3.623,-3.28420002562277
3.6231,-3.1676119339587
3.6232,-3.02880132580961
3.6233,-2.92896079833838
3.6234,-2.74699348698908
3.6235,-2.59369015053712
3.6236,-2.46550801428688
3.6237,-2.36244704153464
3.6238,-2.22589130704096
3.6239,-2.10640508810124
3.624,-1.94923729718507
3.6241,-1.81139347327155
3.6242,-1.64714038532134
3.6243,-1.47129303663332
3.6244,-1.30607388945679
3.6245,-1.12120886893614
3.6246,-0.936343913304591
3.6247,-0.724425619906253
3.6248,-0.632637322035577
3.6249,-0.491895286788786
3.625,-0.331185302128518
3.6251,-0.20590238604198
3.6252,-0.0893152112012929
3.6253,0.0498164326290827
3.6254,0.09683777269788
3.6255,0.147723879236346
3.6256,0.18572742642767
3.6257,0.250462280997283
3.6258,0.28170248396523
3.6259,0.287177571055012
3.626,0.296195361538578
3.6261,0.349980040092843
3.6262,0.427919513464617
3.6263,0.478161487671463
3.6264,0.481060063101685
3.6265,0.517453287928091
3.6266,0.545794914340271
3.6267,0.561898111176048
3.6268,0.56093191936556
3.6269,0.616971044488271
3.627,0.635328688995043
3.6271,0.716166738264308
3.6272,0.765442521990104
3.6273,0.793140021638736
3.6274,0.87526633028081
3.6275,0.92872894835704
3.6276,0.957070577760354
3.6277,0.992175551116584
3.6278,1.04724849235951
3.6279,1.06979297175894
3.628,1.12873068376485
3.6281,1.13742641196897
3.6282,1.09040506749517
3.6283,1.10038905146853
3.6284,1.15385167650384
3.6285,1.15513993255417
3.6286,1.17961679774689
3.6287,1.19797444694309
3.6288,1.19797444694309
3.6289,1.22534988922419
3.629,1.24757230752817
3.6291,1.29781429830138
3.6292,1.37543173731677
3.6293,1.44338725937459
3.6294,1.55353318735309
3.6295,1.65627165377032
3.6296,1.78091050179355
3.6297,1.91456717298883
3.6298,2.06658154282889
3.6299,2.28945014436969
3.63,2.47173870019221
3.6301,2.69525162664111
3.6302,2.88365959446513
3.6303,3.05370994633205
3.6304,3.176738852119
3.6305,3.30717530852548
3.6306,3.40604939969271
3.6307,3.49654981802145
3.6308,3.49880427719888
3.6309,3.54582585835562
3.631,3.62054509923746
3.6311,3.67465214825856
3.6312,3.71813103469881
3.6313,3.73842118410095
3.6314,3.75452447837185
3.6315,3.76450852130861
3.6316,3.75710100554545
3.6317,3.72843714213997
3.6318,3.73874324997685
3.6319,3.70814699349134
3.632,3.68399205661031
3.6321,3.65822679296624
3.6322,3.64437796475842
3.6323,3.59220331587326
3.6324,3.54260520186554
3.6325,3.48785404707299
3.6326,3.4337470336641
3.6327,3.36643534626586
3.6328,3.29300443162864
3.6329,3.18640081002081
3.633,3.08462820110246
3.6331,2.97899084218508
3.6332,2.90523794899161
3.6333,2.763529375149
3.6334,2.6446874525773
3.6335,2.52616762956325
3.6336,2.42729378060914
3.6337,2.29621349941692
3.6338,2.14226667864704
3.6339,2.01215266431812
3.634,1.97962416542561
3.6341,1.90393905112284
3.6342,1.78413114415371
3.6343,1.72422719871021
3.6344,1.66013642393144
3.6345,1.58638373003252
3.6346,1.51842819710046
3.6347,1.46915238750002
3.6348,1.37027871213978
3.6349,1.25111501193387
3.635,1.13581609192708
3.6351,1.06367375589023
3.6352,0.931627524073374
3.6353,0.870113306917522
3.6354,0.794750341393096
3.6355,0.693622262246198
3.6356,0.571560029283831
3.6357,0.487823405770927
3.6358,0.399577886884641
3.6359,0.321960477094588
3.636,0.302314576497712
3.6361,0.247885769399365
3.6362,0.173166932081305
3.6363,0.104567307945579
3.6364,0.0407986412501166
3.6365,0.00859224309629771
3.6366,-0.0129860440058521
3.6367,-0.0712796270415478
3.6368,-0.149863245446773
3.6369,-0.21524224305795
3.637,-0.291893486276539
3.6371,-0.402361464263222
3.6372,-0.449704887287901
3.6373,-0.563393525854193
3.6374,-0.633281450401535
3.6375,-0.746325987471244
3.6376,-0.900594773701572
3.6377,-0.948582357984942
3.6378,-1.03457354237513
3.6379,-1.10703803389694
3.638,-1.17241711693929
3.6381,-1.2104207256863
3.6382,-1.23489762776223
3.6383,-1.27451156397024
3.6384,-1.34794228366276
3.6385,-1.39979468482588
3.6386,-1.4719371659818
3.6387,-1.56404767281345
3.6388,-1.62781649717033
3.6389,-1.76920296746517
3.639,-1.95374620821407
3.6391,-2.09030182745703
3.6392,-2.21880586963067
3.6393,-2.3399024585156
3.6394,-2.46260942393223
3.6395,-2.57565446954876
3.6396,-2.66937561041152
3.6397,-2.77694561970172
3.6398,-2.87710815308232
3.6399,-2.97243973275794
3.64,-3.07775540579302
3.6401,-3.18146079260072
3.6402,-3.28935309181658
3.6403,-3.35022369514226
3.6404,-3.36890356614877
3.6405,-3.41914598564327
3.6406,-3.46391327938089
3.6407,-3.46262501180644
3.6408,-3.48742416396272
3.6409,-3.45650574093232
3.641,-3.4429789322434
3.6411,-3.44942026960936
3.6412,-3.44330099910717
3.6413,-3.44104653107077
3.6414,-3.46616774765462
3.6415,-3.48774623089258
3.6416,-3.46487948006676
3.6417,-3.47003255046419
3.6418,-3.49837443984852
3.6419,-3.54539621913429
3.642,-3.53219147185008
3.6421,-3.57728085621149
3.6422,-3.55538029689428
3.6423,-3.50417164495514
3.6424,-3.47969455779036
3.6425,-3.4774400893756
3.6426,-3.41528118373658
3.6427,-3.3492574949604
3.6428,-3.28226762583027
3.6429,-3.2242956396663
3.643,-3.14410108278978
3.6431,-3.07356854330052
3.6432,-2.96857493827902
3.6433,-2.86551377422971
3.6434,-2.78370900498084
3.6435,-2.70834557882342
3.6436,-2.66422255715867
3.6437,-2.54376996493639
3.6438,-2.44811647259375
3.6439,-2.36534563090276
3.644,-2.28354100830375
3.6441,-2.19304064402336
3.6442,-2.10479476200141
3.6443,-2.07033378534623
3.6444,-1.97983348031401
3.6445,-1.94762697183166
3.6446,-1.83458215025903
3.6447,-1.7672705779999
3.6448,-1.72089323378049
3.6449,-1.64907277418782
3.645,-1.56887864400844
3.6451,-1.49093898219348
3.6452,-1.37982667871059
3.6453,-1.37306332199978
3.6454,-1.31090485782835
3.6455,-1.22104885407092
3.6456,-1.09866435882438
3.6457,-1.03264115606577
3.6458,-0.909612574482414
3.6459,-0.779820668638831
3.646,-0.649706723921162
3.6461,-0.499946889980725
3.6462,-0.381105234301316
3.6463,-0.211699538663924
3.6464,-0.0616177070475363
3.6465,0.0829890219727652
3.6466,0.218255885869956
3.6467,0.340962249720323
3.6468,0.468821633504766
3.6469,0.574780668654377
3.647,0.691045750708188
3.6471,0.827278800617308
3.6472,0.906506534663333
3.6473,1.02019511749238
3.6474,1.15997089275386
3.6475,1.23694419437478
3.6476,1.34709009916658
3.6477,1.41891038831706
3.6478,1.50908833755184
3.6479,1.54354919915088
3.648,1.57414529240933
3.6481,1.61923427405158
3.6482,1.61536950409612
3.6483,1.62599762151967
3.6484,1.60699583592451
3.6485,1.62857413485632
3.6486,1.61762395323449
3.6487,1.63694780325968
3.6488,1.68010440341442
3.6489,1.73743183140486
3.649,1.80893009084082
3.6491,1.87591945798041
3.6492,1.94612947537314
3.6493,2.08590540629383
3.6494,2.15901402929151
3.6495,2.2456493710874
3.6496,2.36030434484072
3.6497,2.46014437291663
3.6498,2.54871215853374
3.6499,2.70845628462023
3.65,2.85789439670425
3.6501,3.0343860385314
3.6502,3.15451635003633
3.6503,3.27464670570066
3.6504,3.36257056084459
3.6505,3.47561555506834
3.6506,3.54163900492561
3.6507,3.54067280798896
3.6508,3.57642209683468
3.6509,3.59703430147064
3.651,3.63020707149858
3.6511,3.64502209628751
3.6512,3.69429816274974
3.6513,3.69558642604467
3.6514,3.69107750453917
3.6515,3.68463618823258
3.6516,3.69558642604467
3.6517,3.70170567677921
3.6518,3.7110455860619
3.6519,3.67561834565942
3.652,3.6186127048256
3.6521,3.62602021681076
3.6522,3.62183336218616
3.6523,3.62054509923746
3.6524,3.5599967473455
3.6525,3.50202493319713
3.6526,3.43439116471749
3.6527,3.34067011105345
3.6528,3.27722322857271
3.6529,3.22376038330408
3.653,3.13712482772201
3.6531,3.04791277387684
3.6532,2.89525393405103
3.6533,2.71908442429118
3.6534,2.51425123615837
3.6535,2.28816188627613
3.6536,2.06754773598612
3.6537,1.78058843755837
3.6538,1.52454741548035
3.6539,1.24402960313313
3.654,0.930017204230468
3.6541,0.663670315696129
3.6542,0.417613467446416
3.6543,0.230172252106749
3.6544,0.0536812003494169
3.6545,-0.0964006193261488
3.6546,-0.210733346558303
3.6547,-0.246160390954135
3.6548,-0.251635479731166
3.6549,-0.122165740083791
3.655,0.0224409943749784
3.6551,0.233392891622044
3.6552,0.431784280718577
3.6553,0.692656070419285
3.6554,0.924864180741512
3.6555,1.09459189947585
3.6556,1.24886056367446
3.6557,1.31327337283908
3.6558,1.31713814150786
3.6559,1.27333743072481
3.656,1.18476982205617
3.6561,1.03533212480431
3.6562,0.877842841966593
3.6563,0.675908745448943
3.6564,0.464956866262032
3.6565,0.253038792593157
3.6566,-0.00235793241310294
3.6567,-0.20719064217775
3.6568,-0.399140823329246
3.6569,-0.568868616491476
3.657,-0.717018142798385
3.6571,-0.886101879869038
3.6572,-1.03682799307787
3.6573,-1.15148292689239
3.6574,-1.24455956312615
3.6575,-1.28932653281634
3.6576,-1.30253117934899
3.6577,-1.36340138401524
3.6578,-1.42394953211793
3.6579,-1.5128393815821
3.658,-1.5804729751069
3.6581,-1.66710840406161
3.6582,-1.70672237972061
3.6583,-1.76276166928604
3.6584,-1.88836700393906
3.6585,-1.97371424347252
3.6586,-2.0783854150852
3.6587,-2.15857965803037
3.6588,-2.23168848322264
3.6589,-2.27677763497549
3.659,-2.3073738488371
3.6591,-2.2948132975144
3.6592,-2.29320297045899
3.6593,-2.23587533275378
3.6594,-2.18788759915281
3.6595,-2.08063987144704
3.6596,-2.01139586153934
3.6597,-1.93732088974507
3.6598,-1.8919097191333
3.6599,-1.89674069445467
3.66,-1.92153970213521
3.6601,-1.98949543344241
3.6602,-2.07613095873866
3.6603,-2.17886977082961
3.6604,-2.29803395165059
3.6605,-2.38241510219655
3.6606,-2.49739251011165
3.6607,-2.60045353120983
3.6608,-2.76374091561228
3.6609,-2.83749402750884
3.661,-2.94764063589881
3.6611,-2.99917122956183
3.6612,-3.08129813565144
3.6613,-3.10641931251613
3.6614,-3.13025222635097
3.6615,-3.15891613941637
3.6616,-3.17695186178992
3.6617,-3.15505134194549
3.6618,-3.15505134194549
3.6619,-3.14989827874989
3.662,-3.16084853817568
3.6621,-3.16728986748841
3.6622,-3.15022034519631
3.6623,-3.14216868416812
3.6624,-3.14088041842915
3.6625,-3.11833576913429
3.6626,-3.09385872375354
3.6627,-3.07421267598692
3.6628,-3.06068588993475
3.6629,-2.9965946996229
3.663,-2.93540212147722
3.6631,-2.88129501224233
3.6632,-2.80657568984209
3.6633,-2.68966575854966
3.6634,-2.60528451750582
3.6635,-2.53088733783554
3.6636,-2.4574563744845
3.6637,-2.35826019027464
3.6638,-2.26325088876308
3.6639,-2.2310443525305
3.664,-2.15342661371365
3.6641,-2.09062389266222
3.6642,-2.02427846695816
3.6643,-1.92894719827229
3.6644,-1.85680463374733
3.6645,-1.74698048920992
3.6646,-1.66517601510729
3.6647,-1.60205131441171
3.6648,-1.51122905805936
3.6649,-1.41396552841233
3.665,-1.25679801486087
3.6651,-1.19077479199395
3.6652,-1.12346332000017
3.6653,-1.03972657256628
3.6654,-0.974025441163389
3.6655,-0.936021848974314
3.6656,-0.915731796517362
3.6657,-0.828130307919053
3.6658,-0.732155161320366
3.6659,-0.663877548427061
3.666,-0.608160444535893
3.6661,-0.512507391112898
3.6662,-0.394631926040164
3.6663,-0.336016263197219
3.6664,-0.212987794805978
3.6665,-0.136658620724601
3.6666,-0.0477689551649108
3.6667,0.0762256785605712
3.6668,0.134841320729597
3.6669,0.231138443961696
3.667,0.356099254979513
3.6671,0.461736226892414
3.6672,0.548693489769909
3.6673,0.614394532981871
3.6674,0.725828656593128
3.6675,0.817938945951233
3.6676,0.871401562757316
3.6677,0.92647450058045
3.6678,1.02470401327323
3.6679,1.03758657271354
3.668,1.08009901959231
3.6681,1.12067908362377
3.6682,1.1506310363834
3.6683,1.17124313328782
3.6684,1.23275736194642
3.6685,1.25594597250434
3.6686,1.27526981498782
3.6687,1.32100291019052
3.6688,1.42309722147932
3.6689,1.44564170805677
3.669,1.51037659403531
3.6691,1.55772002115093
3.6692,1.58702785833361
3.6693,1.63437128989513
3.6694,1.72261687766666
3.6695,1.81504931159309
3.6696,1.93228070983997
3.6697,2.0588519976314
3.6698,2.19895002145674
3.6699,2.30329891909152
3.67,2.42600552213628
3.6701,2.55322106447119
3.6702,2.68301316354182
3.6703,2.78639598230005
3.6704,2.91651022425655
3.6705,3.00733256944083
3.6706,3.06916907336344
3.6707,3.15355015432797
3.6708,3.25016973947261
3.6709,3.31683727041854
3.671,3.38350481580138
3.6711,3.4936512276763
3.6712,3.51877234496793
3.6713,3.58060895077899
3.6714,3.61990096776534
3.6715,3.60089909000858
3.6716,3.60895073296768
3.6717,3.59252538157716
3.6718,3.59413571010221
3.6719,3.60669627291572
3.672,3.61056106158738
3.6721,3.6102389958627
3.6722,3.5616070756846
3.6723,3.53809628284058
3.6724,3.47239489936318
3.6725,3.41538929923171
3.6726,3.34646728878593
3.6727,3.24855941281387
3.6728,3.16417830727715
3.6729,3.04243766664865
3.673,2.93873271081653
3.6731,2.86626808577781
3.6732,2.74807026122835
3.6733,2.56642571785044
3.6734,2.47624760532607
3.6735,2.39669764286721
3.6736,2.29106046699143
3.6737,2.16770976925967
3.6738,2.09460114507436
3.6739,1.95611346932676
3.674,1.87012230093397
3.6741,1.7863855938149
3.6742,1.65659371794966
3.6743,1.58348515268399
3.6744,1.48654384939831
3.6745,1.42406341375015
3.6746,1.31359543689428
3.6747,1.22857052953263
3.6748,1.1567502526188
3.6749,1.07494599566702
3.675,1.0169744776562
3.6751,0.923897988838739
3.6752,0.865926475442888
3.6753,0.809887347125721
3.6754,0.768019033575585
3.6755,0.664314443577197
3.6756,0.609885637847483
3.6757,0.530335845386417
3.6758,0.424698874085154
3.6759,0.32582524441462
3.676,0.225019228875108
3.6761,0.114229226965178
3.6762,0.0201865464999646
3.6763,-0.118623035950928
3.6764,-0.249058967362191
3.6765,-0.331829430269684
3.6766,-0.415888156307013
3.6767,-0.545357933431044
3.6768,-0.627162230947219
3.6769,-0.743105345138531
3.677,-0.838758429044364
3.6771,-0.917986246756423
3.6772,-1.02491161089531
3.6773,-1.12410744887739
3.6774,-1.21364137062739
3.6775,-1.27161298316248
3.6776,-1.34246718574536
3.6777,-1.4249157260368
3.6778,-1.5096187345427
3.6779,-1.61590009994052
3.678,-1.66710840406161
3.6781,-1.68321164571606
3.6782,-1.68772055349762
3.6783,-1.70962096346337
3.6784,-1.66582014475768
3.6785,-1.71960497429902
3.6786,-1.72443594737673
3.6787,-1.78949305744962
3.6788,-1.85487224382502
3.6789,-1.91381014111406
3.679,-2.01848129445934
3.6791,-2.12444074095926
3.6792,-2.21461902032674
3.6793,-2.33603767302459
3.6794,-2.46486388309445
3.6795,-2.59884320246325
3.6796,-2.69224228540668
3.6797,-2.7592319924167
3.6798,-2.86068278319682
3.6799,-2.9666425410622
3.68,-3.03846331449537
3.6801,-3.12252263241239
3.6802,-3.18983452148071
3.6803,-3.27711455979733
3.6804,-3.34442649411388
3.6805,-3.38468483770667
3.6806,-3.42623145598264
3.6807,-3.41721358468141
3.6808,-3.41302671598912
3.6809,-3.41334878280877
3.681,-3.36439463162424
3.6811,-3.30191369115527
3.6812,-3.2391107014014
3.6813,-3.1682560669006
3.6814,-3.06873754820752
3.6815,-3.02042760259242
3.6816,-2.94313170946308
3.6817,-2.87388749223694
3.6818,-2.80786395383776
3.6819,-2.7721146303236
3.682,-2.74312869591927
3.6821,-2.6413558845285
3.6822,-2.610437569648
3.6823,-2.58982536165537
3.6824,-2.58241784978235
3.6825,-2.58950329591766
3.6826,-2.61236996422613
3.6827,-2.6278291213396
3.6828,-2.60625071477515
3.6829,-2.62847325290487
3.683,-2.62009954267422
3.6831,-2.60141972846227
3.6832,-2.51575025174121
3.6833,-2.45359158745879
3.6834,-2.37243107169864
3.6835,-2.31606961543991
3.6836,-2.25069033923683
3.6837,-2.14698530843333
3.6838,-2.04875541860298
3.6839,-1.97307011328497
3.684,-1.86678864850983
3.6841,-1.81654651247616
3.6842,-1.7105871580491
3.6843,-1.63941082994899
3.6844,-1.54246933549467
3.6845,-1.45390154458493
3.6846,-1.39528578014209
3.6847,-1.29158098463746
3.6848,-1.20945453220803
3.6849,-1.12056474006248
3.685,-1.0329632204502
3.6851,-0.953091258720667
3.6852,-0.90510367407524
3.6853,-0.850996871772231
3.6854,-0.780786861389628
3.6855,-0.689964748806596
3.6856,-0.614601728012019
3.6857,-0.517982481408755
3.6858,-0.42973691265197
3.6859,-0.354051851391843
3.686,-0.276434411587648
3.6861,-0.138591004821977
3.6862,-0.0638721550405071
3.6863,0.0288822740018896
3.6864,0.128400041448868
3.6865,0.276227396867302
3.6866,0.430496024967422
3.6867,0.569949709598811
3.6868,0.696198773785576
3.6869,0.828244992481097
3.687,0.965444241070598
3.6871,1.10425381947629
3.6872,1.25787835673813
3.6873,1.37317728879859
3.6874,1.48106875950501
3.6875,1.58702785833361
3.6876,1.64371115088276
3.6877,1.69524142047747
3.6878,1.70458128222563
3.6879,1.7158535293233
3.688,1.71746385035164
3.6881,1.69975031923749
3.6882,1.70458128222563
3.6883,1.66754390012903
3.6884,1.63469335406522
3.6885,1.6321168407082
3.6886,1.63372716155533
3.6887,1.63115064820153
3.6888,1.6575599104885
3.6889,1.66528945084377
3.689,1.61021647751844
3.6891,1.65369514034056
3.6892,1.68300298112583
3.6893,1.75997632682166
3.6894,1.81665963285305
3.6895,1.83469523123298
3.6896,1.89137854369734
3.6897,2.0079658277249
3.6898,2.1715745426253
3.6899,2.3158594360434
3.69,2.47238282949422
3.6901,2.59798806175898
3.6902,2.78220913863463
3.6903,2.91039098906894
3.6904,3.04759070874334
3.6905,3.10942722000597
3.6906,3.147430914908
3.6907,3.23857538771292
3.6908,3.29719128155343
3.6909,3.34936587769353
3.691,3.38865786339848
3.6911,3.47883621080911
3.6912,3.50911037651977
3.6913,3.53713008591593
3.6914,3.59123711876377
3.6915,3.62086716497407
3.6916,3.64566622781812
3.6917,3.57996481939889
3.6918,3.56353946970361
3.6919,3.51361929508852
3.692,3.45532542471862
3.6921,3.37706350642918
3.6922,3.30298845846572
3.6923,3.22537070983681
3.6924,3.19058765853465
3.6925,3.12939526254446
3.6926,3.02858886640425
3.6927,2.99026311979461
3.6928,2.93486793044592
3.6929,2.84114701912777
3.693,2.73196701821878
3.6931,2.59315709059757
3.6932,2.50458929580148
3.6933,2.40152861184776
3.6934,2.32938614697532
3.6935,2.24275079063938
3.6936,2.16770976925967
3.6937,2.0556313538307
3.6938,1.93163658121821
3.6939,1.85144257303108
3.694,1.7583660056963
3.6941,1.66400119411237
3.6942,1.58348515268399
3.6943,1.52937837739013
3.6944,1.46625381054964
3.6945,1.39958654318932
3.6946,1.32293529453708
3.6947,1.23887657857742
3.6948,1.16576804501651
3.6949,1.0253481412429
3.695,0.957070577760354
3.6951,0.86882505107841
3.6952,0.841771678610115
3.6953,0.789919382132511
3.6954,0.736456766781109
3.6955,0.655618717188661
3.6956,0.550625873389843
3.6957,0.472364336809886
3.6958,0.380898178399275
3.6959,0.292330594191066
3.696,0.182184722900298
3.6961,0.0659196314112944
3.6962,-0.0490572111486551
3.6963,-0.17401804711816
3.6964,-0.286096333242195
3.6965,-0.386902387880202
3.6966,-0.500913082368879
3.6967,-0.622653332433715
3.6968,-0.74600392323729
3.6969,-0.814925672826673
3.697,-0.902527159571905
3.6971,-0.960820802919698
3.6972,-1.07901842936066
3.6973,-1.18014666424988
3.6974,-1.23715207933015
3.6975,-1.28610588737606
3.6976,-1.30510769578839
3.6977,-1.32894047352015
3.6978,-1.32926253809238
3.6979,-1.36597790079118
3.698,-1.35599389836494
3.6981,-1.37048680518395
3.6982,-1.3749957096212
3.6983,-1.35985867347194
3.6984,-1.35309531705598
3.6985,-1.36146899644278
3.6986,-1.35245118787868
3.6987,-1.37789429106868
3.6988,-1.51090699335554
3.6989,-1.61171325775403
3.699,-1.72379181762953
3.6991,-1.87258581849825
3.6992,-1.97854521991733
3.6993,-2.08160606703538
3.6994,-2.21365282434141
3.6995,-2.26260675800579
3.6996,-2.34859822605136
3.6997,-2.41590991664375
3.6998,-2.49481598506508
3.6999,-2.58273991551186
3.7,-2.69640660462888
3.7001,-2.79817943692884
3.7002,-2.92088660739602
3.7003,-3.01203134229237
3.7004,-3.14568887743672
3.7005,-3.25422529298269
3.7006,-3.3254020206617
3.7007,-3.41364831169913
3.7008,-3.5025387721259
3.7009,-3.57790245216759
3.701,-3.63458626344326
3.7011,-3.67935360258612
3.7012,-3.72959609554311
3.7013,-3.7837034095536
3.7014,-3.85262584261189
3.7015,-3.88740913569853
3.7016,-3.92895585498624
3.7017,-3.98016461426583
3.7018,-3.97436739555077
3.7019,-3.96212882328229
3.702,-3.94989025179163
3.7021,-3.94216062809206
3.7022,-3.89513875722172
3.7023,-3.83008111888811
3.7024,-3.76566763660393
3.7025,-3.68482874545051
3.7026,-3.59561614154273
3.7027,-3.49802983484781
3.7028,-3.38369609948891
3.7029,-3.21654350496975
3.703,-3.09383618627407
3.7031,-2.96339934176089
3.7032,-2.80462075675542
3.7033,-2.63585822911318
3.7034,-2.48674180771404
3.7035,-2.35598319534175
3.7036,-2.25324432569713
3.7037,-2.14599657628302
3.7038,-2.03037516844636
3.7039,-1.953723672029
3.704,-1.79816627459039
3.7041,-1.67803607236995
3.7042,-1.528598016602
3.7043,-1.40878995859119
3.7044,-1.33471510016863
3.7045,-1.20943199660605
3.7046,-1.12601729996423
3.7047,-1.0483997756195
3.7048,-1.00041218308191
3.7049,-0.966595425679587
3.705,-0.883824894336142
3.7051,-0.850008143522199
3.7052,-0.76401698522164
3.7053,-0.726657534142065
3.7054,-0.669330104478431
3.7055,-0.604595203366564
3.7056,-0.505399444953976
3.7057,-0.420052454388938
3.7058,-0.339536432812852
3.7059,-0.234543550244645
3.706,-0.108616516507116
3.7061,0.0553140553162145
3.7062,0.210226822097201
3.7063,0.367071964020299
3.7064,0.534545211606995
3.7065,0.702018459806833
3.7066,0.894612703065846
3.7067,1.0575770751462
3.7068,1.2482389707474
3.7069,1.38576032293772
3.707,1.51297564223976
3.7071,1.64727639208956
3.7072,1.69365363480364
3.7073,1.70943478055808
3.7074,1.72908069718367
3.7075,1.76096505483428
3.7076,1.73616610986996
3.7077,1.69365363480364
3.7078,1.63793653105484
3.7079,1.58640626529263
3.708,1.55613223570514
3.7081,1.4707852432484
3.7082,1.44437598687337
3.7083,1.38028523362987
3.7084,1.4105592572431
3.7085,1.40154146287732
3.7086,1.38994715595824
3.7087,1.38672651517165
3.7088,1.42183150031911
3.7089,1.48398987172428
3.709,1.54679237573797
3.7091,1.65661625323877
3.7092,1.76354156864744
3.7093,1.86305942222277
3.7094,1.93004879508637
3.7095,2.07787633193638
3.7096,2.17546185158006
3.7097,2.24373951972383
3.7098,2.35549591196845
3.7099,2.4608110379543
3.71,2.55936282986054
3.7101,2.69849481082373
3.7102,2.826998697813
3.7103,2.89592060014288
3.7104,3.01186401701803
3.7105,3.07015780509091
3.7106,3.11524692983018
3.7107,3.14101214671194
3.7108,3.21025617715211
3.7109,3.20606932837819
3.711,3.2360214015853
3.7111,3.25985423605016
3.7112,3.28400913769017
3.7113,3.3023668641885
3.7114,3.30301099496256
3.7115,3.34648982532839
3.7116,3.33199688118825
3.7117,3.38739213807692
3.7118,3.38095082861507
3.7119,3.42668412879794
3.712,3.48691038701164
3.7121,3.5065563883715
3.7122,3.50945497884919
3.7123,3.52265966917266
3.7124,3.50236953551072
3.7125,3.49657235472679
3.7126,3.49947094510422
3.7127,3.48240146885472
3.7128,3.44890665044311
3.7129,3.38030669767647
3.713,3.32265698421723
3.7131,3.23795379350197
3.7132,3.17772758426555
3.7133,3.11556899502881
3.7134,3.02313629570531
3.7135,2.95421436887579
3.7136,2.8685450766408
3.7137,2.75163551075999
3.7138,2.5992988566016
3.7139,2.5052559609371
3.714,2.38738030534924
3.7141,2.26628403482379
3.7142,2.14776430953501
3.7143,2.03504176942021
3.7144,1.89397759342121
3.7145,1.77030491745273
3.7146,1.66370166522201
3.7147,1.50911087278217
3.7148,1.38543825885995
3.7149,1.24566245845693
3.715,1.12553257881842
3.7151,0.997995237833622
3.7152,0.894934767029127
3.7153,0.773838719708552
3.7154,0.652742676778156
3.7155,0.483014981767925
3.7156,0.397023910421108
3.7157,0.278826443500398
3.7158,0.168036443810379
3.7159,0.0530596074826671
3.716,-0.107650324479749
3.7161,-0.207168107034039
3.7162,-0.320856716748268
3.7163,-0.416831813394846
3.7164,-0.50862008627174
3.7165,-0.625529374757071
3.7166,-0.711520515746042
3.7167,-0.812648687584131
3.7168,-0.922150547504847
3.7169,-1.04904390440652
3.717,-1.17368283923707
3.7171,-1.2516224468846
3.7172,-1.32601935670041
3.7173,-1.4178077682694
3.7174,-1.50540935761883
3.7175,-1.60879213883808
3.7176,-1.71217494639086
3.7177,-1.78335128781343
3.7178,-1.85839242259161
3.7179,-1.89800641841713
3.718,-1.94373965483781
3.7181,-1.95726638787508
3.7182,-1.95243541173025
3.7183,-1.98109920450504
3.7184,-2.04873288232859
3.7185,-2.0761084224379
3.7186,-2.09897505178426
3.7187,-2.20268006695434
3.7188,-2.33987992194649
3.7189,-2.50316715480305
3.719,-2.67353992930588
3.7191,-2.79367051314512
3.7192,-2.94471950304104
3.7193,-3.08675072624753
3.7194,-3.22878203373295
3.7195,-3.33441988821404
3.7196,-3.4874016259237
3.7197,-3.58208932406704
3.7198,-3.72057821128097
3.7199,-3.8075363977259
3.72,-3.91864969123558
3.7201,-4.03201752281458
3.7202,-4.11156828591133
3.7203,-4.21688453068744
3.7204,-4.27356852852416
3.7205,-4.36632419993852
3.7206,-4.40626068452256
3.7207,-4.4291275467251
3.7208,-4.48484540664602
3.7209,-4.54603845274417
3.721,-4.6252673767007
3.7211,-4.71190392583577
3.7212,-4.78050464568437
3.7213,-4.8545805728248
3.7214,-4.89838200665989
3.7215,-4.90997650586389
3.7216,-4.84781711719708
3.7217,-4.7698763632617
3.7218,-4.66713633533269
3.7219,-4.4748612801397
3.722,-4.1708287954397
3.7221,-3.83040318635181
3.7222,-3.47806168518092
3.7223,-3.10736297418139
3.7224,-2.76790523587469
3.7225,-2.48094462661307
3.7226,-2.23488660024399
3.7227,-2.00235550180538
3.7228,-1.83616993902488
3.7229,-1.71281907611817
3.723,-1.63552351640839
3.7231,-1.63520145160782
3.7232,-1.65001643270243
3.7233,-1.73858426609304
3.7234,-1.83584787405558
3.7235,-1.92731433685104
3.7236,-2.01427191147447
3.7237,-2.05324179466323
3.7238,-2.12763885700882
3.7239,-2.17884723442742
3.724,-2.20557865481593
3.7241,-2.1988152831801
3.7242,-2.18271201795944
3.7243,-2.12731679176764
3.7244,-2.03198549418558
3.7245,-1.86676611240356
3.7246,-1.65935631237124
3.7247,-1.44582739236548
3.7248,-1.18012412866663
3.7249,-0.863534843627913
3.725,-0.542758885005209
3.7251,-0.239052446835358
3.7252,0.0929955401426483
3.7253,0.365783708257879
3.7254,0.652098548898286
3.7255,0.944532617942428
3.7256,1.15129769952836
3.7257,1.40315178329363
3.7258,1.62376570763244
3.7259,1.77835652326013
3.726,1.93874453151928
3.7261,2.03955067058388
3.7262,2.11716818919543
3.7263,2.14067889203677
3.7264,2.13552586118841
3.7265,2.07240123729604
3.7266,2.01636203640833
3.7267,1.92876053784762
3.7268,1.83503983086535
3.7269,1.74453977949995
3.727,1.64985290549856
3.7271,1.62859667013364
3.7272,1.64083510860514
3.7273,1.62988492680571
3.7274,1.65565006070076
3.7275,1.71619812884384
3.7276,1.7596767979313
3.7277,1.78737432187715
3.7278,1.79091702850946
3.7279,1.83632808791271
3.728,1.85694020101791
3.7281,1.84856652998979
3.7282,1.81958074649435
3.7283,1.80283340550011
3.7284,1.80283340550011
3.7285,1.8102408831956
3.7286,1.79768037758636
3.7287,1.81088501169475
3.7288,1.83568395938871
3.7289,1.8804508933359
3.729,1.91201319399042
3.7291,1.94325343194099
3.7292,1.99188514579355
3.7293,2.03858447747435
3.7294,2.09977671104271
3.7295,2.14905256727216
3.7296,2.23053487563916
3.7297,2.3039655838012
3.7298,2.39543192018685
3.7299,2.5223253890856
3.73,2.5909251732584
3.7301,2.72297173838065
3.7302,2.8112175163745
3.7303,2.93360220646945
3.7304,3.00864336603216
3.7305,3.10139812658446
3.7306,3.14294453805931
3.7307,3.19608530459939
3.7308,3.25727771331844
3.7309,3.29753588342574
3.731,3.30880817198952
3.7311,3.32458937667066
3.7312,3.32781003078675
3.7313,3.36194896650468
3.7314,3.39093485833983
3.7315,3.41347944281372
3.7316,3.48530005909042
3.7317,3.50494606034093
3.7318,3.5577648244603
3.7319,3.5883610642644
3.732,3.56710472889086
3.7321,3.57805496206472
3.7322,3.60768500690996
3.7323,3.63409439735936
3.7324,3.62282209625049
3.7325,3.62926341111367
3.7326,3.57708876500286
3.7327,3.49335169878593
3.7328,3.40832639478387
3.7329,3.30140066802992
3.733,3.19318671710879
3.7331,3.07531084761143
3.7332,2.99028565598416
3.7333,2.85791693277473
3.7334,2.68786667169989
3.7335,2.53649623561054
3.7336,2.41121308567907
3.7337,2.2379423588633
3.7338,2.08753826378722
3.7339,1.91265732259188
3.734,1.79349354243552
3.7341,1.63729240271181
3.7342,1.49719450039596
3.7343,1.34518024995027
3.7344,1.29461619295945
3.7345,1.17899520483787
3.7346,1.10653080259676
3.7347,1.02215003649095
3.7348,0.911682093183499
3.7349,0.804756858950697
3.735,0.704594971350973
3.7351,0.6034668941354
3.7352,0.507169777007846
3.7353,0.405719636771029
3.7354,0.349036383319259
3.7355,0.241467025455638
3.7356,0.140983071101625
3.7357,0.0595008869998989
3.7358,-0.0313211563644366
3.7359,-0.122465268974153
3.736,-0.186878073061129
3.7361,-0.274479492104332
3.7362,-0.296379847933497
3.7363,-0.295413655755128
3.7364,-0.261596930057978
3.7365,-0.201693018468071
3.7366,-0.147586262185734
3.7367,-0.127940357197775
3.7368,-0.121499076936998
3.7369,-0.110226836554229
3.737,-0.0954118921911699
3.7371,-0.144365622003661
3.7372,-0.218762412315751
3.7373,-0.334383407657341
3.7374,-0.469006198907625
3.7375,-0.658379921804712
3.7376,-0.813936944649303
3.7377,-0.973358777001345
3.7378,-1.08736956860013
3.7379,-1.21233057704461
3.738,-1.38946608131938
3.7381,-1.53149659906424
3.7382,-1.60170671375408
3.7383,-1.70122474119041
3.7384,-1.79591182004295
3.7385,-1.87481773740543
3.7386,-1.96564008001809
3.7387,-2.00235550180538
3.7388,-2.13730081439232
3.7389,-2.21234202659612
3.739,-2.34471090387468
3.7391,-2.42329488753915
3.7392,-2.50413335172
3.7393,-2.61492395347477
3.7394,-2.67643852184513
3.7395,-2.72249394082754
3.7396,-2.78755125956344
3.7397,-2.86323677455782
3.7398,-2.96146694458678
3.7399,-3.03006705355126
3.74,-3.12024563004595
3.7401,-3.19496504793887
3.7402,-3.27322722262195
3.7403,-3.3653382940125
3.7404,-3.43812539137816
3.7405,-3.53699993874532
3.7406,-3.61494016802209
3.7407,-3.66936951891461
3.7408,-3.70222037669521
3.7409,-3.75729388542672
3.741,-3.80077298187476
3.7411,-3.878069176765
3.7412,-3.92412484066002
3.7413,-3.97275705704988
3.7414,-3.9853176977152
3.7415,-3.98950457811987
3.7416,-4.02171135353183
3.7417,-4.0397471501442
3.7418,-4.00754037168041
3.7419,-3.95955228185127
3.742,-3.91220833916888
3.7421,-3.85584651763946
3.7422,-3.77951653354598
3.7423,-3.70254244395441
3.7424,-3.60398988613137
3.7425,-3.52508345993959
3.7426,-3.4271751185516
3.7427,-3.31799448687189
3.7428,-3.20301671077513
3.7429,-3.09576858449958
3.743,-3.03908490968188
3.7431,-2.89640958179252
3.7432,-2.77949961033236
3.7433,-2.62941691336202
3.7434,-2.49221692330574
3.7435,-2.39849584126743
3.7436,-2.27578890229633
3.7437,-2.17916929971997
3.7438,-2.08866896512286
3.7439,-1.95597812756326
3.744,-1.89575196325295
3.7441,-1.78914845648234
3.7442,-1.68802008238798
3.7443,-1.58463728110262
3.7444,-1.46128649607791
3.7445,-1.38141446603345
3.7446,-1.30862787024773
3.7447,-1.23294270509499
3.7448,-1.16530916310012
3.7449,-1.11860981790121
3.745,-1.04936596880031
3.7451,-0.992682638357153
3.7452,-0.98430896502326
3.7453,-0.913132746541331
3.7454,-0.850974336377248
3.7455,-0.811360430521516
3.7456,-0.76659349916486
3.7457,-0.672228682272524
3.7458,-0.597187727473008
3.7459,-0.495415456946797
3.746,-0.376895865987841
3.7461,-0.271902979682974
3.7462,-0.16079088701607
3.7463,-0.0628834279344682
3.7464,0.0392108564448349
3.7465,0.150000862038748
3.7466,0.277860251659503
3.7467,0.366427836139125
3.7468,0.432773007579207
3.7469,0.540986490337706
3.747,0.603788958073288
3.7471,0.71522308148614
3.7472,0.789297789291709
3.7473,0.850167876553303
3.7474,0.904274621984271
3.7475,0.956126920924544
3.7476,1.01023366911152
3.7477,1.09010553860481
3.7478,1.14872118743568
3.7479,1.20347207048551
3.748,1.24759484267425
3.7481,1.30846494718592
3.7482,1.35613042821617
3.7483,1.40637242413426
3.7484,1.42762865395295
3.7485,1.46949698682211
3.7486,1.54228347786017
3.7487,1.59155929171786
3.7488,1.65403973980681
3.7489,1.69880666195113
3.749,1.79993482729376
3.7491,1.88431566475917
3.7492,2.00444565532194
3.7493,2.12586392848206
3.7494,2.23407758499358
3.7495,2.29559190599836
3.7496,2.4282825101953
3.7497,2.51717235410166
3.7498,2.59672233863183
3.7499,2.66983104232198
3.75,2.73070129476908
3.7501,2.80992925669457
3.7502,2.88980136529903
3.7503,2.9442303525608
3.7504,2.9564688242117
3.7505,2.97514859754962
3.7506,3.00510064998234
3.7507,3.03666303061793
3.7508,3.06049585057684
3.7509,3.05791932941967
3.751,3.07659910825387
3.7511,3.05663106884842
3.7512,3.01315227742079
3.7513,3.00252412924159
3.7514,2.99511663221852
3.7515,2.98191196400319
3.7516,3.01991564461417
3.7517,3.0447146587959
3.7518,3.06919160962708
3.7519,3.11073801708219
3.752,3.14326660328497
3.7521,3.20317074079751
3.7522,3.25051434124805
3.7523,3.27756783040369
3.7524,3.28272087622223
3.7525,3.27402511145279
3.7526,3.2360214015853
3.7527,3.20510313251505
3.7528,3.11589106022775
3.7529,2.9545364339229
3.753,2.82216772383257
3.7531,2.65211747854542
3.7532,2.46048897331139
3.7533,2.2295686821832
3.7534,2.04824640864392
3.7535,1.8920452076769
3.7536,1.7152319362277
3.7537,1.54904682468597
3.7538,1.36128345332281
3.7539,1.21184573515803
3.754,1.04179593965087
3.7541,0.873034417627927
3.7542,0.732292470546395
3.7543,0.557733815044023
3.7544,0.49203277199254
3.7545,0.412805043419355
3.7546,0.365461644317229
3.7547,0.331644930440932
3.7548,0.340340656887784
3.7549,0.348392255435956
3.755,0.417958066432534
3.7551,0.48172672602132
3.7552,0.576413523386679
3.7553,0.641148374950281
3.7554,0.735191046054304
3.7555,0.80346860314278
3.7556,0.855320899875866
3.7557,0.876899185154525
3.7558,0.853710580086449
3.7559,0.777059359199
3.756,0.696221308837733
3.7561,0.616027387721237
3.7562,0.53518933948002
3.7563,0.450164460202997
3.7564,0.411194723727095
3.7565,0.315863797217854
3.7566,0.301370919717356
3.7567,0.261434990324039
3.7568,0.206362054648101
3.7569,0.194767752268382
3.757,0.200886967419354
3.7571,0.210870950004868
3.7572,0.210870950004868
3.7573,0.229228595312916
3.7574,0.219566676744144
3.7575,0.254993711347523
3.7576,0.240822897554595
3.7577,0.179952810265688
3.7578,0.118760657568238
3.7579,0.0343798967556987
3.758,-0.0603069159450046
3.7581,-0.17850440834525
3.7582,-0.275445684263908
3.7583,-0.43390121079229
3.7584,-0.632292722560534
3.7585,-0.780764326029569
3.7586,-0.907979717479878
3.7587,-1.08286066678982
3.7588,-1.28962606170671
3.7589,-1.45999823741434
3.759,-1.65967837719133
3.7591,-1.8400347186785
3.7592,-2.06097135880644
3.7593,-2.22425844389452
3.7594,-2.38400289311102
3.7595,-2.47611364245148
3.7596,-2.54600188794261
3.7597,-2.64423193981644
3.7598,-2.72378220440958
3.7599,-2.78529679775373
3.76,-2.85615132114568
3.7601,-2.90671569754616
3.7602,-2.91831007827298
3.7603,-2.94182090750331
3.7604,-2.96694206995256
3.7605,-2.90510536693189
3.7606,-2.91895421055126
3.7607,-2.87676354980034
3.7608,-2.89673164790345
3.7609,-2.91992040897178
3.761,-2.87161049248037
3.7611,-2.86194851028644
3.7612,-2.89190065628254
3.7613,-2.90542743305392
3.7614,-2.96533173895006
3.7615,-3.01106514351255
3.7616,-3.10220991203096
3.7617,-3.16758939637877
3.7618,-3.19882984606542
3.7619,-3.23264683242478
3.762,-3.28868642078668
3.7621,-3.3141296867306
3.7622,-3.32830062090684
3.7623,-3.35438802480191
3.7624,-3.35599835847556
3.7625,-3.35148942421866
3.7626,-3.30092495341468
3.7627,-3.23007029995635
3.7628,-3.17435279234789
3.7629,-3.06259575045814
3.763,-2.98723224148298
3.7631,-2.89318892070576
3.7632,-2.78594092969737
3.7633,-2.69576247290305
3.7634,-2.62361972931538
3.7635,-2.51669391193829
3.7636,-2.40107236545835
3.7637,-2.27675509847297
3.7638,-2.15243788153768
3.7639,-2.06225961951432
3.764,-1.96886073089602
3.7641,-1.86966469738357
3.7642,-1.79848833952686
3.7643,-1.73117677379838
3.7644,-1.72409134651989
3.7645,-1.63552351640839
3.7646,-1.56982230239573
3.7647,-1.50412109882352
3.7648,-1.42167254390155
3.7649,-1.36756568807494
3.765,-1.33568129389732
3.7651,-1.3070175474605
3.7652,-1.27899793183597
3.7653,-1.21072025457666
3.7654,-1.13728955547814
3.7655,-1.0532307415405
3.7656,-1.00202250491277
3.7657,-0.897351595178917
3.7658,-0.808139787876147
3.7659,-0.70862193779264
3.766,-0.654837215680597
3.7661,-0.539216179410525
3.7662,-0.396863839480354
3.7663,-0.25902041766674
3.7664,-0.141467045846585
3.7665,-0.0789866279703223
3.7666,0.0111912900641978
3.7667,0.095894115868906
3.7668,0.198954583688957
3.7669,0.274639612187988
3.767,0.318440308768301
3.7671,0.430518560014864
3.7672,0.517475822974173
3.7673,0.578023843072433
3.7674,0.692034477586661
3.7675,0.749039795733212
3.7676,0.837607382247391
3.7677,0.962568200388607
3.7678,1.02665893227778
3.7679,1.07690091474185
3.768,1.14678880336936
3.7681,1.23471228128489
3.7682,1.29107348841784
3.7683,1.34099341711447
3.7684,1.41152544950157
3.7685,1.42150943622938
3.7686,1.44437598687337
3.7687,1.51361977048437
3.7688,1.58705039359398
3.7689,1.6653119861366
3.769,1.71652019304951
3.7691,1.75162519234182
3.7692,1.83987079480608
3.7693,1.88528185761869
3.7694,1.98061289388271
3.7695,2.07723220315235
3.7696,2.18093694727462
3.7697,2.29849048675986
3.7698,2.42216328246453
3.7699,2.57643226017817
3.77,2.67723853286061
3.7701,2.75292377024259
3.7702,2.83311793161137
3.7703,2.89269995021219
3.7704,2.93199188133176
3.7705,2.9783692482255
3.7706,2.99576076238817
3.7707,2.99930347834258
3.7708,2.9864208750449
3.7709,2.9664528408724
3.771,2.96677490593068
3.7711,2.92522851583275
3.7712,2.88883517033311
3.7713,2.81862500961994
3.7714,2.78255373953595
3.7715,2.74551627827635
3.7716,2.71427598762646
3.7717,2.69559622739802
3.7718,2.66757658870702
3.7719,2.65888083916801
3.772,2.6579146447864
3.7721,2.6240978428838
3.7722,2.65469399686445
3.7723,2.65920290396239
3.7724,2.69366383845935
3.7725,2.69624035704634
3.7726,2.72039521961852
3.7727,2.78738471300833
3.7728,2.85405215326321
3.7729,2.92168580062241
3.773,3.01218608211827
3.7731,3.116213125427
3.7732,3.1625905174048
3.7733,3.18964399910016
3.7734,3.20606932837819
3.7735,3.24697162260244
3.7736,3.222494658498
3.7737,3.1973735657147
3.7738,3.15808160400796
3.7739,3.08465073738088
3.774,3.00542271507628
3.7741,2.92136373560502
3.7742,2.84213575002406
3.7743,2.76838288437041
3.7744,2.61282557620654
3.7745,2.48947479211501
3.7746,2.35388558912829
3.7747,2.22795835976071
3.7748,2.11008277210278
3.7749,1.97288334984015
3.775,1.8292426741836
3.7751,1.72618211928693
3.7752,1.55742049226057
3.7753,1.39187954043524
3.7754,1.22376210421285
3.7755,1.02987957213289
3.7756,0.893002383250125
3.7757,0.696865436722837
3.7758,0.480760534211323
3.7759,0.290420745571434
3.776,0.114895889974366
3.7761,-0.0838175880157324
3.7762,-0.276089812370769
3.7763,-0.372064904721366
3.7764,-0.505077380822876
3.7765,-0.660956435360254
3.7766,-0.788171803828804
3.7767,-0.869332000905503
3.7768,-0.972392583950552
3.7769,-1.06096028710249
3.777,-1.14501910225693
3.7771,-1.22134838296129
3.7772,-1.24421496298633
3.7773,-1.32569729213062
3.7774,-1.40846789396318
3.7775,-1.48415308799182
3.7776,-1.55307493580089
3.7777,-1.64647371978197
3.7778,-1.71893830858111
3.7779,-1.68222291524979
3.778,-1.69285105506874
3.7781,-1.68544356364931
3.7782,-1.66966238674396
3.7783,-1.69381724961207
3.7784,-1.69285105506874
3.7785,-1.7089542977704
3.7786,-1.69703789810709
3.7787,-1.69510550900688
3.7788,-1.74921240746215
3.7789,-1.84196710852061
3.779,-1.91314347488862
3.7791,-2.04454603521485
3.7792,-2.1257064655665
3.7793,-2.27321237917339
3.7794,-2.41041226583879
3.7795,-2.5263558817144
3.7796,-2.67160753429698
3.7797,-2.80268836079068
3.7798,-2.95438148841048
3.7799,-3.05357789345168
3.78,-3.18079412202429
3.7801,-3.25068256051292
3.7802,-3.3315212878898
3.7803,-3.35632042521169
3.7804,-3.37628856376279
3.7805,-3.3553542250047
3.7806,-3.35632042521169
3.7807,-3.3592190258578
3.7808,-3.30092495341468
3.7809,-3.29190708720358
3.781,-3.29544982031507
3.7811,-3.28288922135157
3.7812,-3.27226102277156
3.7813,-3.25583562594163
3.7814,-3.22588343475664
3.7815,-3.22813790062395
3.7816,-3.23135856618696
3.7817,-3.19593124746448
3.7818,-3.13667101728853
3.7819,-3.09705684999195
3.782,-3.08610659352825
3.7821,-3.09125965533103
3.7822,-3.08095353183638
3.7823,-3.07354600584832
3.7824,-3.09544651812758
3.7825,-3.07934320008039
3.7826,-3.04456003678184
3.7827,-3.05003516400557
3.7828,-3.04037317487075
3.7829,-2.99528389731517
3.783,-3.00526795091376
3.7831,-3.00526795091376
3.7832,-3.01106514351255
3.7833,-3.01525200491938
3.7834,-2.97789232104753
3.7835,-2.93892231199926
3.7836,-2.88449313597624
3.7837,-2.81492686881039
3.7838,-2.75276813665845
3.7839,-2.66323382275113
3.784,-2.58110705003077
3.7841,-2.53827231155864
3.7842,-2.45324698518321
3.7843,-2.40010616888412
3.7844,-2.30767337772747
3.7845,-2.2368189923462
3.7846,-2.19527256476168
3.7847,-2.14374211947416
3.7848,-2.05775070705844
3.7849,-1.97755648841581
3.785,-1.93085705243042
3.7851,-1.89800641841713
3.7852,-1.86129100750463
3.7853,-1.82232114560014
3.7854,-1.70702190861097
3.7855,-1.5984860660294
3.7856,-1.3637009129056
3.7857,-1.16563122756439
3.7858,-0.900250173969853
3.7859,-0.654515151488342
3.786,-0.382693019539513
3.7861,-0.098310468249845
3.7862,0.146458158460467
3.7863,0.346459871785565
3.7864,0.526815677131312
3.7865,0.676575408382327
3.7866,0.869491714067318
3.7867,0.99928349375363
3.7868,1.09397030658656
3.7869,1.17996139689406
3.787,1.23664466548441
3.7871,1.34260373743394
3.7872,1.42311975667912
3.7873,1.48044716650432
3.7874,1.58093117475196
3.7875,1.64953084132196
3.7876,1.72972482560677
3.7877,1.74937074279344
3.7878,1.81410565419983
3.7879,1.81346152569757
3.788,1.86209322939707
3.7881,1.88077295762027
3.7882,1.87175515771988
3.7883,1.87239928627994
3.7884,1.87239928627994
3.7885,1.88592598619253
3.7886,1.8920452076769
3.7887,1.93262530957205
3.7888,1.97191715684194
3.7889,2.04663608677084
3.789,2.11265928739843
