16,-0.503585364059777
16.0001,-0.522265084149831
16.0002,-0.53675797071949
16.0003,-0.565099616320853
16.0004,-0.574439477025264
16.0005,-0.586999979528186
16.0006,-0.604069380693448
16.0007,-0.636597863224865
16.0008,-0.671380796625137
16.0009,-0.669126347187531
16.001,-0.664939512536428
16.0011,-0.72194487875369
16.0012,-0.780238506714661
16.0013,-0.779272313944586
16.0014,-0.786035663364933
16.0015,-0.792799012855083
16.0016,-0.814377318842038
16.0017,-0.794731398436568
16.0018,-0.784425342068057
16.0019,-0.759626394592302
16.002,-0.761558780076628
16.0021,-0.725809649513023
16.0022,-0.69553561247507
16.0023,-0.616951947864003
16.0024,-0.585711722851855
16.0025,-0.530316687767777
16.0026,-0.509060454387342
16.0027,-0.46783624573658
16.0028,-0.422103141561646
16.0029,-0.390218795657336
16.003,-0.367674309311098
16.0031,-0.280072881551292
16.0032,-0.241747259218699
16.0033,-0.181199219866764
16.0034,-0.113243711202932
16.0035,-0.10712449495739
16.0036,-0.0900551024177945
16.0037,-0.113243711202932
16.0038,-0.102937662805339
16.0039,-0.0771725421495446
16.004,-0.0446440779864656
16.0041,0.00141107304843986
16.0042,0.0197687202951524
16.0043,0.0271761919343505
16.0044,0.0735534049672762
16.0045,0.0719430850900383
16.0046,0.086113899963024
16.0047,0.0967420110497804
16.0048,0.110912825744126
16.0049,0.0735534049672762
16.005,0.104471546349895
16.0051,0.0993185228197926
16.0052,0.149238437733672
16.0053,0.137644135018294
16.0054,0.149238437733672
16.0055,0.14279715845479
16.0056,0.171138787146771
16.0057,0.228788235415178
16.0058,0.212362973745898
16.0059,0.247145880699059
16.006,0.203667246939932
16.0061,0.179512450104283
16.0062,0.221702828432437
16.0063,0.224279340064578
16.0064,0.27484338039432
16.0065,0.275487508291416
16.0066,0.245857624893351
16.0067,0.222669020294766
16.0068,0.216227741206237
16.0069,0.202378991114412
16.007,0.228788235415178
16.0071,0.198514223634063
16.0072,0.183699281572317
16.0073,0.20656582254506
16.0074,0.181122769900519
16.0075,0.176613874468402
16.0076,0.191106752613965
16.0077,0.155357653031646
16.0078,0.110590761774895
16.0079,0.0819270683069072
16.008,0.0555178222627211
16.0081,0.033295407612154
16.0082,0.0461779668636955
16.0083,0.0407028791933066
16.0084,0.0278203199014582
16.0085,0.002699329002231
16.0086,-0.0256423022198955
16.0087,-0.0533398059593826
16.0088,-0.0913433584511398
16.0089,-0.0691209420413657
16.009,-0.0836138222689128
16.0091,-0.0865123983322387
16.0092,-0.0610693419782121
16.0093,-0.107768622981929
16.0094,-0.113243711202932
16.0095,-0.12354975967973
16.0096,-0.123227695663618
16.0097,-0.109378943044621
16.0098,-0.115498159300419
16.0099,-0.105514174897381
16.01,-0.113243711202932
16.0101,-0.0984287666559733
16.0102,-0.110667199096158
16.0103,-0.0923095504769331
16.0104,-0.069765070048355
16.0105,-0.101649406761145
16.0106,-0.078460798171072
16.0107,-0.0488309099670909
16.0108,-0.0333718380964305
16.0109,-0.00953910260009232
16.011,-0.00277575880841715
16.0111,-0.00438607875624019
16.0112,0.0149377605130033
16.0113,0.0394146232683984
16.0114,0.0284644478683244
16.0115,0.0252438080315751
16.0116,0.0474662227836897
16.0117,0.0329733436296515
16.0118,0.031363023716242
16.0119,0.0439235190014645
16.012,0.0307188957504587
16.0121,0.0400587512309703
16.0122,0.0104288647037619
16.0123,-0.0117935505369906
16.0124,-0.0256423022198955
16.0125,-0.0198451503377779
16.0126,-0.0391689900294082
16.0127,-0.0237099182567957
16.0128,-0.0343380300837298
16.0129,-0.0362704140601617
16.013,-0.0365924780564718
16.0131,-0.0237099182567957
16.0132,-0.0320835821143129
16.0133,-0.0307953261332766
16.0134,-0.0523736139598807
16.0135,-0.0491529739660867
16.0136,-0.0910212944426915
16.0137,-0.0549501259599559
16.0138,-0.0523736139598807
16.0139,-0.049475037965152
16.014,-0.0411013740119837
16.0141,-0.0613914059798813
16.0142,-0.0539839339594012
16.0143,-0.0713753900670912
16.0144,-0.0501191659634919
16.0145,-0.0481867819693082
16.0146,-0.0108273585636441
16.0147,-0.049475037965152
16.0148,-0.0291850061584981
16.0149,-0.00567433471565495
16.015,-0.0375586700458109
16.0151,-0.0372366060492963
16.0152,-0.00438607875624019
16.0153,-0.022743726276145
16.0154,-0.022099598289377
16.0155,-0.0333718380964305
16.0156,-0.0353042220716399
16.0157,-0.03691454205285
16.0158,-0.0646120460004913
16.0159,-0.0816814382300175
16.016,-0.0881227183700126
16.0161,-0.0510853579615249
16.0162,-0.0520515499601868
16.0163,-0.0433558219947803
16.0164,-0.0520515499601868
16.0165,-0.0275746861854006
16.0166,-0.0208113423166372
16.0167,-0.0121156145282363
16.0168,0.0020552010254624
16.0169,0.0361939834519936
16.017,0.0497206706414474
16.0171,0.0381263673425465
16.0172,0.0207349122499216
16.0173,0.0043096489430437
16.0174,-0.0108273585636441
16.0175,-0.016946574404766
16.0176,-0.00341988678735392
16.0177,0.0226672961578079
16.0178,0.0281423838849215
16.0179,0.00720822483252778
16.018,-0.0166245104125384
16.0181,-0.0324056461097408
16.0182,-0.0314394541236597
16.0183,-0.0504412299627664
16.0184,-0.0320835821143129
16.0185,-0.0375586700458109
16.0186,0.00527584090677254
16.0187,-0.0301511981431632
16.0188,-0.0439999499904849
16.0189,-0.0465764619760673
16.019,-0.0449661419845596
16.0191,-0.0659003020107351
16.0192,-0.0816814382300175
16.0193,-0.112921647189315
16.0194,-0.114209903244247
16.0195,-0.0861903343249065
16.0196,-0.0774946061548168
16.0197,-0.0723415820792003
16.0198,-0.0588148939685152
16.0199,-0.0468985259745767
16.02,-0.07362983809636
16.0201,-0.0942419345305412
16.0202,-0.134499936274532
16.0203,-0.124193887712188
16.0204,-0.125160079761467
16.0205,-0.119684991491568
16.0206,-0.0845800142893559
16.0207,-0.0681547500314218
16.0208,-0.0758842861291853
16.0209,-0.063001725989295
16.021,-0.0919874864682605
16.0211,-0.111955455148927
16.0212,-0.0842579502824677
16.0213,-0.0659003020107351
16.0214,-0.0797490541937701
16.0215,-0.0684768140346645
16.0216,-0.0700871340519579
16.0217,-0.0671885580221253
16.0218,-0.0526956779596446
16.0219,-0.0468985259745767
16.022,-0.0449661419845596
16.0221,-0.0584928299674134
16.0222,-0.10583623890923
16.0223,-0.0481867819693082
16.0224,-0.0411013740119837
16.0225,-0.0530177419594785
16.0226,-0.0523736139598807
16.0227,-0.0655782380080668
16.0228,-0.0514074219610089
16.0229,-0.0581707659663825
16.023,-0.0391689900294082
16.0231,-0.0327277101052363
16.0232,0.00173313703698288
16.0233,-0.00213163082973663
16.0234,-0.0150141904523858
16.0235,-0.0478647179705211
16.0236,-0.0230657902696287
16.0237,-0.0375586700458109
16.0238,-0.0262864302081296
16.0239,0.0149377605130033
16.024,0.026854127950706
16.0241,0.00141107304843986
16.0242,-0.024031982250479
16.0243,-0.00277575880841715
16.0244,-0.024031982250479
16.0245,-0.0314394541236597
16.0246,0.00141107304843986
16.0247,0.0165480804419281
16.0248,-0.00728465466637287
16.0249,-0.0214554703028745
16.025,-0.0243540462442289
16.0251,-0.000521310884154323
16.0252,0.0020552010254624
16.0253,-0.0359483500639198
16.0254,-0.00728465466637287
16.0255,-0.0011654388621956
16.0256,0.00720822483252778
16.0257,0.0133274405825303
16.0258,0.0407028791933066
16.0259,0.0387704953055906
16.026,0.0635694217060979
16.0261,0.0568060781760416
16.0262,0.0310409597333803
16.0263,0.0526192464544088
16.0264,0.0622811657975287
16.0265,0.0935213713325748
16.0266,0.0890124757196625
16.0267,0.0874021558553953
16.0268,0.0848256440697987
16.0269,0.0867580279093162
16.027,0.108336313988869
16.0271,0.101572970615834
16.0272,0.106725994140188
16.0273,0.107692186049549
16.0274,0.123795384472435
16.0275,0.077418172667059
16.0276,0.0851477080431852
16.0277,0.103505354439003
16.0278,0.0899786676375864
16.0279,0.109302505897469
16.028,0.0571281421542294
16.0281,0.0671121254500444
16.0282,0.0703327652114236
16.0283,0.0822491322807768
16.0284,0.0397366872497138
16.0285,0.0429573270596326
16.0286,0.0310409597333803
16.0287,0.0410249431743865
16.0288,-0.00213163082973663
16.0289,-0.00728465466637287
16.029,-0.0372366060492963
16.0291,-0.0324056461097408
16.0292,-0.0504412299627664
16.0293,-0.0874785903546803
16.0294,-0.0488309099670909
16.0295,-0.0581707659663825
16.0296,-0.0659003020107351
16.0297,-0.0771725421495446
16.0298,-0.0678326860282511
16.0299,-0.0733077740919613
16.03,-0.069765070048355
16.0301,-0.0810373102176412
16.0302,-0.102615598794176
16.0303,-0.125804207794712
16.0304,-0.12548214377805
16.0305,-0.145128048940162
16.0306,-0.207608470686622
16.0307,-0.232729465922092
16.0308,-0.230475017609209
16.0309,-0.274597792563698
16.031,-0.277174305024953
16.0311,-0.287158290871174
16.0312,-0.308092455050252
16.0313,-0.346096015732478
16.0314,-0.37186114244929
16.0315,-0.398270398054576
16.0316,-0.458174322121465
16.0317,-0.407288192822348
16.0318,-0.396660077569566
16.0319,-0.384421641974186
16.032,-0.362521283935282
16.0321,-0.35157110510271
16.0322,-0.353825553675818
16.0323,-0.344807759414502
16.0324,-0.304227686246995
16.0325,-0.30712626284808
16.0326,-0.273953664449352
16.0327,-0.239492810887759
16.0328,-0.228864697388466
16.0329,-0.23788249065415
16.033,-0.216626263785025
16.0331,-0.205676086460327
16.0332,-0.18409779614778
16.0333,-0.13127929609007
16.0334,-0.105514174897381
16.0335,-0.0958522545772784
16.0336,-0.0939198705214191
16.0337,-0.111311327122388
16.0338,-0.0852241423033542
16.0339,-0.0642899819981092
16.034,-0.0523736139598807
16.0341,-0.0568825099629653
16.0342,-0.0330497741007996
16.0343,-0.0333718380964305
16.0344,-0.00341988678735392
16.0345,0.00688616084505927
16.0346,-0.00245369481904489
16.0347,0.018480464354601
16.0348,0.0149377605130033
16.0349,0.0171922084130656
16.035,-0.0307953261332766
16.0351,-0.0172686383970593
16.0352,-0.00728465466637287
16.0353,0.0165480804419281
16.0354,0.0107509286905411
16.0355,-0.0140479984770809
16.0356,-0.03691454205285
16.0357,-0.0449661419845596
16.0358,-0.0472205899731554
16.0359,-0.0343380300837298
16.036,-0.0398131180233259
16.0361,-0.0259643662139791
16.0362,-0.0237099182567957
16.0363,-0.0159803824282805
16.0364,-0.0401351820203875
16.0365,-0.0343380300837298
16.0366,-0.0526956779596446
16.0367,-0.0504412299627664
16.0368,-0.0401351820203875
16.0369,-0.0462543979776272
16.037,-0.0188789583595136
16.0371,-0.0101832305817383
16.0372,-0.0266084942023469
16.0373,-0.0543059979595158
16.0374,-0.0423896300017403
16.0375,-0.0327277101052363
16.0376,-0.0275746861854006
16.0377,-0.0807152462115633
16.0378,-0.0636458539935593
16.0379,-0.0684768140346645
16.038,-0.0868344623396451
16.0381,-0.0794269901879857
16.0382,-0.103903854839283
16.0383,-0.0839358862756533
16.0384,-0.110345135083158
16.0385,-0.0948860625490106
16.0386,-0.097784638635847
16.0387,-0.0948860625490106
16.0388,-0.0890889103935686
16.0389,-0.0559163179611436
16.039,-0.0449661419845596
16.0391,-0.0295070701533192
16.0392,-0.0462543979776272
16.0393,-0.0520515499601868
16.0394,-0.0620355339834332
16.0395,-0.0929536784945027
16.0396,-0.0749180941146809
16.0397,-0.0704091980556328
16.0398,-0.0636458539935593
16.0399,-0.0233878542631789
16.04,-0.0275746861854006
16.0401,-0.0607472779766139
16.0402,-0.0208113423166372
16.0403,-0.0298291341482075
16.0404,-0.000843374873143045
16.0405,-0.0182348303743342
16.0406,-0.0237099182567957
16.0407,-0.00599639870566957
16.0408,-0.0117935505369906
16.0409,-0.00213163082973663
16.041,-0.0214554703028745
16.0411,-0.0159803824282805
16.0412,-0.00889497461870584
16.0413,-0.00148750285131203
16.0414,0.0030213929905202
16.0415,-0.0269305581966312
16.0416,-0.0237099182567957
16.0417,-0.0256423022198955
16.0418,-0.016946574404766
16.0419,-0.0623575979853159
16.042,-0.0208113423166372
16.0421,-0.0398131180233259
16.0422,-0.0459323339792565
16.0423,-0.0555942539606773
16.0424,-0.0404572460175176
16.0425,-0.03691454205285
16.0426,-0.0539839339594012
16.0427,-0.0150141904523858
16.0428,-0.0317615181189525
16.0429,-0.0407793100147164
16.043,-0.0742739661053751
16.0431,-0.103581790827892
16.0432,-0.10197147077208
16.0433,-0.082969694255653
16.0434,-0.0723415820792003
16.0435,-0.07073126205938
16.0436,-0.0301511981431632
16.0437,0.0101068007169203
16.0438,-0.0233878542631789
16.0439,-0.0117935505369906
16.044,0.0110729926772579
16.0441,0.0564840141977969
16.0442,0.0416690711363699
16.0443,0.0561619502194953
16.0444,0.0799946844625571
16.0445,0.0629252937519256
16.0446,0.0989964588487227
16.0447,0.0626032297747552
16.0448,0.060026717955366
16.0449,0.0738754689425591
16.045,0.0906227955826043
16.0451,0.0638914856831
16.0452,0.0915889874997352
16.0453,0.0645356136369359
16.0454,0.0696886372595911
16.0455,0.065179741590548
16.0456,0.0532633744122123
16.0457,0.0403808152121679
16.0458,0.0423131990981185
16.0459,0.0426352630789048
16.046,0.0271761919343505
16.0461,0.0806388124108898
16.0462,0.0597046539776884
16.0463,0.0671121254500444
16.0464,0.0980302669352019
16.0465,0.0735534049672762
16.0466,0.053585438391028
16.0467,0.0339395355769798
16.0468,0.0130053765962495
16.0469,-0.00921703860936667
16.047,0.00527584090677254
16.0471,0.00559790489455591
16.0472,0.0194466563101067
16.0473,-0.0137259344854435
16.0474,-0.0246761102380455
16.0475,-0.0646120460004913
16.0476,-0.0791049261822745
16.0477,-0.0916654224596628
16.0478,-0.112599583175775
16.0479,-0.137076448427853
16.048,-0.122905631647585
16.0481,-0.151569329386512
16.0482,-0.152857585479706
16.0483,-0.164773954404358
16.0484,-0.165740146484316
16.0485,-0.186674308403411
16.0486,-0.205031958385603
16.0487,-0.250120924487824
16.0488,-0.233373594012312
16.0489,-0.229186761432432
16.049,-0.230797081653632
16.0491,-0.243035515409849
16.0492,-0.245289963747941
16.0493,-0.247544412090601
16.0494,-0.232729465922092
16.0495,-0.262359358456964
16.0496,-0.229508825476489
16.0497,-0.219846904194326
16.0498,-0.238848682794038
16.0499,-0.235950106376867
16.05,-0.224033736739905
16.0501,-0.169604914811689
16.0502,-0.193759717134895
16.0503,-0.186996372435752
16.0504,-0.14351772883366
16.0505,-0.115820223314656
16.0506,-0.100361150718167
16.0507,-0.11775260740171
16.0508,-0.10229353478309
16.0509,-0.0729857100876351
16.051,-0.0391689900294082
16.0511,-0.0333718380964305
16.0512,-0.0266084942023469
16.0513,-0.0330497741007996
16.0514,-0.0443220139884407
16.0515,-0.0385248620357642
16.0516,-0.0546280619597007
16.0517,-0.0385248620357642
16.0518,-0.0233878542631789
16.0519,-0.0427116939993515
16.052,-0.0617134699816217
16.0521,-0.0749180941146809
16.0522,-0.0526956779596446
16.0523,-0.0671885580221253
16.0524,-0.0865123983322387
16.0525,-0.063001725989295
16.0526,-0.0623575979853159
16.0527,-0.034982158075602
16.0528,-0.0510853579615249
16.0529,-0.0504412299627664
16.053,-0.0472205899731554
16.0531,-0.0301511981431632
16.0532,-0.0523736139598807
16.0533,-0.0617134699816217
16.0534,-0.0572045739637137
16.0535,-0.0546280619597007
16.0536,-0.0810373102176412
16.0537,-0.0675106220251523
16.0538,-0.0617134699816217
16.0539,-0.0430337579970314
16.054,-0.0330497741007996
16.0541,-0.0378807340423937
16.0542,-0.00567433471565495
16.0543,0.00366552096690852
16.0544,-0.00503020673581891
16.0545,-0.0208113423166372
16.0546,-0.0105052945726587
16.0547,0.0242776160793686
16.0548,0.0200907842801368
16.0549,0.0229893601422419
16.055,0.00720822483252778
16.0551,0.0159039524705437
16.0552,0.0139715685549056
16.0553,0.0526192464544088
16.0554,0.0481103507433385
16.0555,0.066467997497102
16.0556,0.0542295663484877
16.0557,0.0725872130410984
16.0558,0.0558398862411367
16.0559,0.0503647986002865
16.056,0.0561619502194953
16.0561,0.0233114241266149
16.0562,0.0316850876990436
16.0563,0.0226672961578079
16.0564,-0.000521310884154323
16.0565,0.0197687202951524
16.0566,0.00817441679455628
16.0567,0.0590605260221637
16.0568,0.0799946844625571
16.0569,0.0951316911918311
16.057,0.0448897109427705
16.0571,0.0439235190014645
16.0572,0.0262099999832354
16.0573,0.0255658720155225
16.0574,0.023633488110927
16.0575,0.0336174715945968
16.0576,0.0355498554880014
16.0577,0.0661459335205472
16.0578,0.00720822483252778
16.0579,-0.0101832305817383
16.058,-0.0272526221909824
16.0581,-0.0391689900294082
16.0582,-0.0639679179957986
16.0583,-0.0839358862756533
16.0584,-0.0910212944426915
16.0585,-0.0878006543623094
16.0586,-0.0868344623396451
16.0587,-0.0552721899602814
16.0588,-0.095208126558358
16.0589,-0.138364704506438
16.059,-0.127736591896344
16.0591,-0.149314881226576
16.0592,-0.148026625136982
16.0593,-0.145128048940162
16.0594,-0.148026625136982
16.0595,-0.16638427453804
16.0596,-0.16187537816899
16.0597,-0.148992817204055
16.0598,-0.126126271811454
16.0599,-0.127414527879208
16.06,-0.123227695663618
16.0601,-0.137076448427853
16.0602,-0.10583623890923
16.0603,-0.0871565263471256
16.0604,-0.095208126558358
16.0605,-0.103903854839283
16.0606,-0.0855462063104643
16.0607,-0.0855462063104643
16.0608,-0.0845800142893559
16.0609,-0.07073126205938
16.061,-0.0404572460175176
16.0611,-0.00277575880841715
16.0612,-0.022743726276145
16.0613,-0.000843374873143045
16.0614,-0.0153362544442851
16.0615,0.00591996888227623
16.0616,-0.00406401476654724
16.0617,0.00366552096690852
16.0618,-0.0256423022198955
16.0619,-0.0382027980390448
16.062,-0.0411013740119837
16.0621,-0.0204892783236179
16.0622,-0.022743726276145
16.0623,-0.0134038704938714
16.0624,-0.00341988678735392
16.0625,-0.00213163082973663
16.0626,-0.000199246895229384
16.0627,0.00753028881993342
16.0628,-0.00857291062810981
16.0629,-0.0356262860677458
16.063,-0.0375586700458109
16.0631,-0.0327277101052363
16.0632,-0.00792878264711198
16.0633,-0.0601031499736306
16.0634,-0.0810373102176412
16.0635,-0.0646120460004913
16.0636,-0.0604252139750868
16.0637,-0.0646120460004913
16.0638,-0.034982158075602
16.0639,-0.0198451503377779
16.064,-0.0343380300837298
16.0641,-0.0607472779766139
16.0642,-0.0633237899913915
16.0643,-0.0626796619872698
16.0644,-0.0858682703176483
16.0645,-0.0900551024177945
16.0646,-0.0581707659663825
16.0647,-0.0378807340423937
16.0648,-0.0765284141392191
16.0649,-0.106802430945235
16.065,-0.110667199096158
16.0651,-0.082969694255653
16.0652,-0.097784638635847
16.0653,-0.0939198705214191
16.0654,-0.116142287328971
16.0655,-0.129991040018514
16.0656,-0.122583567631631
16.0657,-0.0897330384096447
16.0658,-0.0929536784945027
16.0659,-0.0504412299627664
16.066,-0.0343380300837298
16.0661,-0.0526956779596446
16.0662,-0.0391689900294082
16.0663,-0.0849020782963181
16.0664,-0.075240158119443
16.0665,-0.0681547500314218
16.0666,-0.0510853579615249
16.0667,-0.0439999499904849
16.0668,-0.0378807340423937
16.0669,-0.0581707659663825
16.067,-0.0414234380093198
16.0671,-0.0423896300017403
16.0672,-0.0659003020107351
16.0673,-0.0578487019654222
16.0674,-0.0443220139884407
16.0675,-0.0166245104125384
16.0676,-0.0391689900294082
16.0677,0.000766945071163101
16.0678,-0.00760671865671011
16.0679,-0.0266084942023469
16.068,-0.0398131180233259
16.0681,-0.000521310884154323
16.0682,0.00366552096690852
16.0683,-0.00567433471565495
16.0684,0.00527584090677254
16.0685,-0.0301511981431632
16.0686,-0.00921703860936667
16.0687,-0.0111494225546945
16.0688,0.0120391846370339
16.0689,-0.00535227072570475
16.069,0.00624203286993354
16.0691,-0.00921703860936667
16.0692,-0.0175907023894184
16.0693,-0.0291850061584981
16.0694,0.0107509286905411
16.0695,0.00591996888227623
16.0696,-0.0153362544442851
16.0697,-0.0488309099670909
16.0698,-0.0375586700458109
16.0699,-0.0452882059827227
16.07,-0.0166245104125384
16.0701,-0.0391689900294082
16.0702,-0.00148750285131203
16.0703,-0.0282188141744382
16.0704,-0.0278967501798859
16.0705,-0.034660094079632
16.0706,-0.0314394541236597
16.0707,-0.0472205899731554
16.0708,-0.0430337579970314
16.0709,-0.0269305581966312
16.071,-0.0314394541236597
16.0711,-0.0575266379645326
16.0712,-0.01565831843625
16.0713,-0.0394910540263328
16.0714,-0.0182348303743342
16.0715,-0.00309782279785348
16.0716,-0.00374195077691849
16.0717,-0.0430337579970314
16.0718,-0.0475426539718035
16.0719,-0.0659003020107351
16.072,-0.0874785903546803
16.0721,-0.0916654224596628
16.0722,-0.111311327122388
16.0723,-0.130957232072062
16.0724,-0.121939439599958
16.0725,-0.143195664812603
16.0726,-0.145450112961705
16.0727,-0.163807762325152
16.0728,-0.143839792854798
16.0729,-0.116142287328971
16.073,-0.075240158119443
16.0731,-0.12902484796568
16.0732,-0.151569329386512
16.0733,-0.122905631647585
16.0734,-0.128702783948227
16.0735,-0.130313104036284
16.0736,-0.123227695663618
16.0737,-0.139652960586308
16.0738,-0.10422591885075
16.0739,-0.0842579502824677
16.074,-0.0581707659663825
16.0741,-0.0903771664260189
16.0742,-0.0955301905677806
16.0743,-0.101649406761145
16.0744,-0.10970100705739
16.0745,-0.0807152462115633
16.0746,-0.0929536784945027
16.0747,-0.110667199096158
16.0748,-0.111955455148927
16.0749,-0.108412751006775
16.075,-0.124838015744962
16.0751,-0.10197147077208
16.0752,-0.0894109744015694
16.0753,-0.0929536784945027
16.0754,-0.0726636460833815
16.0755,-0.0684768140346645
16.0756,-0.0404572460175176
16.0757,-0.022743726276145
16.0758,-0.0214554703028745
16.0759,-0.022099598289377
16.076,-0.000521310884154323
16.0761,0.00237726501387842
16.0762,0.00237726501387842
16.0763,0.00559790489455591
16.0764,0.0561619502194953
16.0765,0.0345836635415671
16.0766,0.0500427346208958
16.0767,0.0320071516817854
16.0768,0.00978473673001613
16.0769,-0.00406401476654724
16.077,-0.0275746861854006
16.0771,-0.0301511981431632
16.0772,-0.0417455020067245
16.0773,-0.063001725989295
16.0774,-0.0803931822055589
16.0775,-0.069765070048355
16.0776,-0.0739519021008312
16.0777,-0.0565604459622875
16.0778,-0.0968184466062235
16.0779,-0.115820223314656
16.078,-0.097784638635847
16.0781,-0.12354975967973
16.0782,-0.133211680199791
16.0783,-0.139008832546212
16.0784,-0.120007055506818
16.0785,-0.117430543387007
16.0786,-0.108090686994314
16.0787,-0.10422591885075
16.0788,-0.083291758262246
16.0789,-0.0910212944426915
16.079,-0.0704091980556328
16.0791,-0.049475037965152
16.0792,-0.0871565263471256
16.0793,-0.0713753900670912
16.0794,-0.0436778859925981
16.0795,-0.034982158075602
16.0796,-0.0214554703028745
16.0797,-0.0404572460175176
16.0798,-0.0179127663818434
16.0799,-0.0295070701533192
16.08,-0.0237099182567957
16.0801,-0.0581707659663825
16.0802,-0.0581707659663825
16.0803,-0.0497971019642871
16.0804,-0.0269305581966312
16.0805,-0.0127597425109234
16.0806,0.00591996888227623
16.0807,0.0510089265588949
16.0808,0.0529413104333392
16.0809,0.0510089265588949
16.081,0.0845035800963587
16.0811,0.104149482379649
16.0812,0.0919110514720067
16.0813,0.134423495364362
16.0814,0.127016024142208
16.0815,0.108658377958453
16.0816,0.114455529402342
16.0817,0.161476868313361
16.0818,0.168562275461701
16.0819,0.131846983637794
16.082,0.14537367016856
16.0821,0.105759802230369
16.0822,0.126693960175449
16.0823,0.101895034586491
16.0824,0.0783843645907778
16.0825,0.114455529402342
16.0826,0.0738754689425591
16.0827,0.101572970615834
16.0828,0.0545516303271318
16.0829,0.0497206706414474
16.083,0.0770961086923773
16.0831,0.0558398862411367
16.0832,0.0719430850900383
16.0833,0.0497206706414474
16.0834,0.048432414723076
16.0835,0.023633488110927
16.0836,0.0416690711363699
16.0837,0.0368381114157483
16.0838,0.0355498554880014
16.0839,0.0107509286905411
16.084,0.00141107304843986
16.0841,-0.0317615181189525
16.0842,-0.0127597425109234
16.0843,-0.0243540462442289
16.0844,-0.0459323339792565
16.0845,-0.0581707659663825
16.0846,-0.063001725989295
16.0847,-0.0913433584511398
16.0848,-0.0939198705214191
16.0849,-0.0665444300162867
16.085,-0.0723415820792003
16.0851,-0.116464351343363
16.0852,-0.135466128331427
16.0853,-0.172825555093752
16.0854,-0.205998150497821
16.0855,-0.201167189944675
16.0856,-0.162841570246696
16.0857,-0.189572884697589
16.0858,-0.201167189944675
16.0859,-0.202133382053717
16.086,-0.22628818504002
16.0861,-0.202133382053717
16.0862,-0.186674308403411
16.0863,-0.181843347928612
16.0864,-0.182165411959665
16.0865,-0.159298865965433
16.0866,-0.147382497092674
16.0867,-0.142873600791627
16.0868,-0.131601360108158
16.0869,-0.100683214728798
16.087,-0.121617375584239
16.0871,-0.0588148939685152
16.0872,-0.049475037965152
16.0873,-0.0704091980556328
16.0874,-0.0613914059798813
16.0875,-0.0636458539935593
16.0876,-0.0787828621766367
16.0877,-0.0684768140346645
16.0878,-0.0584928299674134
16.0879,-0.0787828621766367
16.088,-0.0942419345305412
16.0881,-0.103259726816577
16.0882,-0.122583567631631
16.0883,-0.133533744218356
16.0884,-0.0900551024177945
16.0885,-0.0694430060448243
16.0886,-0.0478647179705211
16.0887,-0.0572045739637137
16.0888,-0.0604252139750868
16.0889,-0.016946574404766
16.089,0.000122817093631815
16.0891,0.00463171293101648
16.0892,0.026854127950706
16.0893,0.0207349122499216
16.0894,0.0439235190014645
16.0895,0.0361939834519936
16.0896,0.00753028881993342
16.0897,-0.024031982250479
16.0898,-0.0311173901284344
16.0899,-0.0269305581966312
16.09,-0.0246761102380455
16.0901,-0.038846926032552
16.0902,-0.00921703860936667
16.0903,-0.045610269980955
16.0904,-0.0813593742237926
16.0905,-0.0903771664260189
16.0906,-0.100361150718167
16.0907,-0.113243711202932
16.0908,-0.124515951728536
16.0909,-0.143839792854798
16.091,-0.147060433070643
16.0911,-0.14577217698333
16.0912,-0.141585344708531
16.0913,-0.159298865965433
16.0914,-0.175080003296222
16.0915,-0.176046195384266
16.0916,-0.185063988242996
16.0917,-0.221779288444233
16.0918,-0.233695658057559
16.0919,-0.227576441213514
16.092,-0.234661850193854
16.0921,-0.237238362561354
16.0922,-0.24013693898185
16.0923,-0.244323771602485
16.0924,-0.212117367227078
16.0925,-0.227898505257115
16.0926,-0.247866476139926
16.0927,-0.242069323266347
16.0928,-0.250120924487824
16.0929,-0.263647614672209
16.093,-0.231441209742752
16.0931,-0.204709894348374
16.0932,-0.215660071663987
16.0933,-0.215660071663987
16.0934,-0.202777510126852
16.0935,-0.180877155835968
16.0936,-0.163163634272765
16.0937,-0.121295311568598
16.0938,-0.102615598794176
16.0939,-0.107768622981929
16.094,-0.0968184466062235
16.0941,-0.0742739661053751
16.0942,-0.0919874864682605
16.0943,-0.114854031272178
16.0944,-0.110989263109234
16.0945,-0.128058655913559
16.0946,-0.0984287666559733
16.0947,-0.111311327122388
16.0948,-0.120651183537551
16.0949,-0.120973247553035
16.095,-0.116464351343363
16.0951,-0.125160079761467
16.0952,-0.103259726816577
16.0953,-0.099072894676402
16.0954,-0.112277519162312
16.0955,-0.119040863461303
16.0956,-0.104870046873913
16.0957,-0.0501191659634919
16.0958,-0.0468985259745767
16.0959,-0.0439999499904849
16.096,0.0142936325410002
16.0961,0.0265320639670009
16.0962,0.070010701235535
16.0963,0.101250906645126
16.0964,0.152137013403177
16.0965,0.165019571890185
16.0966,0.185953729282954
16.0967,0.214939485386731
16.0968,0.238772217952123
16.0969,0.223313148202802
16.097,0.203345182983611
16.0971,0.246501752796273
16.0972,0.222991084248802
16.0973,0.190140560740199
16.0974,0.210752653969138
16.0975,0.208176142324325
16.0976,0.194649456147975
16.0977,0.179834514063614
16.0978,0.18627579324145
16.0979,0.182411025736752
16.098,0.16598576377385
16.0981,0.172104979027959
16.0982,0.148272245843014
16.0983,0.127338088108918
16.0984,0.083859452149318
16.0985,0.0638914856831
16.0986,0.0448897109427705
16.0987,0.0320071516817854
16.0988,0.0168701444275277
16.0989,-0.000199246895229384
16.099,-0.0549501259599559
16.0991,-0.07362983809636
16.0992,-0.10422591885075
16.0993,-0.119040863461303
16.0994,-0.161553314143255
16.0995,-0.142551536770731
16.0996,-0.148992817204055
16.0997,-0.17443587523795
16.0998,-0.2221013524862
16.0999,-0.255918077403558
16.1,-0.310209829391722
16.1001,-0.361740081631446
16.1002,-0.390081721523542
16.1003,-0.395556811146103
16.1004,-0.409405567394272
16.1005,-0.414880657131234
16.1006,-0.420355746901042
16.1007,-0.428085285455878
16.1008,-0.477683159451879
16.1009,-0.509245444391587
16.101,-0.538553281481203
16.1011,-0.576878916208857
16.1012,-0.595558638015972
16.1013,-0.539197409780732
16.1014,-0.488311275677321
16.1015,-0.441611978086885
16.1016,-0.424542580276705
16.1017,-0.382030119195469
16.1018,-0.382674247379183
16.1019,-0.356587056286532
16.102,-0.325024776638692
16.1021,-0.295394882358593
16.1022,-0.244186697468692
16.1023,-0.191046130730255
16.1024,-0.207149332514891
16.1025,-0.130498093920339
16.1026,-0.103444716694098
16.1027,-0.0970034364822288
16.1028,-0.0567454358291715
16.1029,-0.0171315642632655
16.103,0.024736754197292
16.1031,0.0463150409974893
16.1032,0.0656388797010641
16.1033,0.0582314082222457
16.1034,0.0785214387245716
16.1035,0.0959128932689612
16.1036,0.107185132243819
16.1037,0.109761644000695
16.1038,0.113948475598729
16.1039,0.144544552410038
16.104,0.16902141355628
16.1041,0.187056995292114
16.1042,0.15839330282721
16.1043,0.157427110940356
16.1044,0.150663767721035
16.1045,0.154528535277373
16.1046,0.142612168624154
16.1047,0.17288618108233
16.1048,0.127475162242712
16.1049,0.140035656907031
16.105,0.129407546041957
16.1051,0.162580134332273
16.1052,0.140357720871835
16.1053,0.111371963847099
16.1054,0.13713708122168
16.1055,0.169665541477721
16.1056,0.143578360517305
16.1057,0.15807123886497
16.1058,0.150663767721035
16.1059,0.172564117122063
16.106,0.170953797320082
16.1061,0.166766965829868
16.1062,0.182870163829499
16.1063,0.165800773946466
16.1064,0.183192227788411
16.1065,0.164190454139919
16.1066,0.154528535277373
16.1067,0.134882633463762
16.1068,0.112016091785308
16.1069,0.0859289101235916
16.107,0.0859289101235916
16.1071,0.0859289101235916
16.1072,0.085284782176979
16.1073,0.105252748424028
16.1074,0.0894716138261506
16.1075,0.0810979505187689
16.1076,0.0540445765035803
16.1077,0.0289235859854609
16.1078,0.00831149092835008
16.1079,0.00895561890272198
16.108,-0.0396760438895321
16.1081,-0.0818664281025221
16.1082,-0.0809002360838474
16.1083,-0.115361085166626
16.1084,-0.184282786045639
16.1085,-0.237423352473912
16.1086,-0.240966056989888
16.1087,-0.292818369852642
16.1088,-0.297649330806511
16.1089,-0.32019381555617
16.109,-0.327279225151779
16.1091,-0.341450044493129
16.1092,-0.349501646481816
16.1093,-0.352722287295769
16.1094,-0.334364634797295
16.1095,-0.301192035520243
16.1096,-0.278647551182597
16.1097,-0.264154668646611
16.1098,-0.277037230891159
16.1099,-0.260611964056258
16.11,-0.246763209858437
16.1101,-0.236135096289056
16.1102,-0.248373530105063
16.1103,-0.211336165015008
16.1104,-0.187181362334386
16.1105,-0.139193822432426
16.1106,-0.142092398616123
16.1107,-0.129209837849418
16.1108,-0.141448270574737
16.1109,-0.156263215608978
16.111,-0.127921581779765
16.1111,-0.060288139841293
16.1112,-0.0657632278769413
16.1113,-0.0193860122111633
16.1114,0.0286015220021182
16.1115,0.0189396024736248
16.1116,0.0218381783379336
16.1117,0.0128203867437003
16.1118,0.0379413774947295
16.1119,0.00605704301607003
16.112,-0.0074696445229163
16.1121,-0.00940202846629852
16.1122,-0.0316244439851587
16.1123,-0.0177756922480495
16.1124,-0.0164874362787446
16.1125,-0.0296920600144137
16.1126,-0.0390319158956144
16.1127,-0.0187418842257198
16.1128,0.00380259510070233
16.1129,-0.032268571975947
16.113,-0.0348450839418082
16.1131,-0.0229287161358349
16.1132,-0.0203522041898241
16.1133,-0.0142329883349899
16.1134,-0.0496600278304933
16.1135,-0.0390319158956144
16.1136,-0.0406422358809226
16.1137,-0.0377436599085999
16.1138,-0.0419304918704042
16.1139,-0.0548130518261621
16.114,-0.0725265719495877
16.1141,-0.0651190998716763
16.1142,-0.0409642998781899
16.1143,-0.0448290678507658
16.1144,-0.0889518362597748
16.1145,-0.0934607323785782
16.1146,-0.0982916925221795
16.1147,-0.0718824439412977
16.1148,-0.0757472119953915
16.1149,-0.0567454358291715
16.115,-0.0300141240093694
16.1151,-0.034200955949936
16.1152,-0.0445070038526718
16.1153,-0.0789678520484807
16.1154,-0.0432187478609865
16.1155,-0.0744589559761979
16.1156,-0.0718824439412977
16.1157,-0.0841208761486739
16.1158,-0.0705941879255862
16.1159,-0.107309484835827
16.116,-0.0770354680157508
16.1161,-0.0628646518555012
16.1162,-0.0641529078643154
16.1163,-0.0631867158575977
16.1164,-0.0483717718343709
16.1165,-0.0496600278304933
16.1166,-0.0135888603516497
16.1167,-0.0235728441230019
16.1168,-0.0142329883349899
16.1169,-0.0197080762039841
16.117,-0.0245390361042517
16.1171,-0.0110123484209007
16.1172,-0.0580336918325886
16.1173,-0.0573895638307388
16.1174,-0.0461173238438334
16.1175,-0.0486938358332971
16.1176,-0.0606102038428201
16.1177,-0.0857311961838546
16.1178,-0.0657632278769413
16.1179,-0.0792899160541919
16.118,-0.0689838679075719
16.1181,-0.0599660758398368
16.1182,-0.0399981078865937
16.1183,-0.0763913400054253
16.1184,-0.106021228787361
16.1185,-0.122124429481961
16.1186,-0.115039021152466
16.1187,-0.118259661297557
16.1188,-0.0715603799372614
16.1189,-0.0664073558824929
16.119,-0.0789678520484807
16.1191,-0.0870194522133318
16.1192,-0.0776795960263683
16.1193,-0.0831546841284522
16.1194,-0.0918504123344668
16.1195,-0.102800588671545
16.1196,-0.109563932923596
16.1197,-0.0660852918796813
16.1198,-0.0676956118944573
16.1199,-0.0722045079454065
16.12,-0.077357532021023
16.1201,-0.114716957138384
16.1202,-0.0689838679075719
16.1203,-0.0876635802285156
16.1204,-0.0596440118384516
16.1205,-0.0325906359714425
16.1206,-0.0670514838883315
16.1207,-0.0786457880428429
16.1208,-0.0422525558679465
16.1209,-0.0300141240093694
16.121,-0.035489211933952
16.1211,-0.0374215959120171
16.1212,-0.0370995319155025
16.1213,-0.00875790048491204
16.1214,-0.0216404601622988
16.1215,-0.0554571798268835
16.1216,-0.0786457880428429
16.1217,-0.0818664281025221
16.1218,-0.058999883835894
16.1219,-0.0538468598256074
16.122,-0.0567454358291715
16.1221,-0.0374215959120171
16.1222,-0.0525586038258508
16.1223,-0.0193860122111633
16.1224,0.0189396024736248
16.1225,0.0240926262289721
16.1226,0.0179734105177503
16.1227,-0.022284588148934
16.1228,0.00509085105271988
16.1229,0.0163630905900606
16.123,-0.00231662068525108
16.1231,0.0134645147163241
16.1232,0.0157189626185526
16.1233,-0.00553726058186114
16.1234,-0.00167249270669854
16.1235,0.0112100668110517
16.1236,0.0182954745031033
16.1237,0.00509085105271988
16.1238,0.000904019204956905
16.1239,-0.00038423675036052
16.124,0.000904019204956905
16.1241,-0.014877116318592
16.1242,0.00154814718223366
16.1243,-0.0151991803104913
16.1244,-0.0470835158393616
16.1245,-0.0557792438273498
16.1246,-0.0783237240372782
16.1247,-0.0809002360838474
16.1248,-0.0599660758398368
16.1249,-0.0718824439412977
16.125,-0.068017675897628
16.1251,-0.0486938358332971
16.1252,-0.0306582519994828
16.1253,-0.00618138856195483
16.1254,-0.0374215959120171
16.1255,-0.0696279959145612
16.1256,-0.0693059319110305
16.1257,-0.0554571798268835
16.1258,-0.0767134040105515
16.1259,-0.113428701082832
16.126,-0.0837988121418595
16.1261,-0.098613756532356
16.1262,-0.105699164775436
16.1263,-0.0651190998716763
16.1264,-0.0841208761486739
16.1265,-0.0657632278769413
16.1266,-0.0747810199808871
16.1267,-0.0805781720777695
16.1268,-0.123090621529824
16.1269,-0.143380654699866
16.127,-0.137583502333191
16.1271,-0.110208060949364
16.1272,-0.105055036751815
16.1273,-0.0783237240372782
16.1274,-0.102156460649296
16.1275,-0.0924945403518867
16.1276,-0.0970034364822288
16.1277,-0.0821884921088941
16.1278,-0.134040798121933
16.1279,-0.123734749562126
16.128,-0.0631867158575977
16.1281,-0.0396760438895321
16.1282,-0.0667294198853763
16.1283,-0.0499820918296981
16.1284,-0.0664073558824929
16.1285,-0.0660852918796813
16.1286,-0.0345230199458382
16.1287,-0.0361333399263679
16.1288,-0.0219625241555832
16.1289,-0.00392694063275344
16.129,0.0205499223988536
16.1291,0.0450267850765643
16.1292,-0.0168095002709722
16.1293,-0.0132667963600776
16.1294,0.0115321307977061
16.1295,0.0282794580187153
16.1296,0.0286015220021182
16.1297,0.0173292825468594
16.1298,0.0311780338671741
16.1299,0.027957394035252
16.13,0.0231264342760357
16.1301,0.0286015220021182
16.1302,-0.00135042871751823
16.1303,-0.0171315642632655
16.1304,-0.0213183961690807
16.1305,-0.0113344124120162
16.1306,-0.035811275930126
16.1307,-0.0454731958471612
16.1308,-0.0709162519294057
16.1309,-0.0635087798597656
16.131,-0.0284038040352639
16.1311,-0.0496600278304933
16.1312,-0.0722045079454065
16.1313,-0.0577116278316284
16.1314,-0.0953931164339868
16.1315,-0.0818664281025221
16.1316,-0.100868204605711
16.1317,-0.113750765096604
16.1318,-0.103766780705489
16.1319,-0.0715603799372614
16.132,-0.0905621563005241
16.1321,-0.0554571798268835
16.1322,-0.0641529078643154
16.1323,-0.0815443640962237
16.1324,-0.0596440118384516
16.1325,-0.060288139841293
16.1326,-0.0390319158956144
16.1327,-0.0232507801293851
16.1328,-0.0255052280861017
16.1329,0.0173292825468594
16.133,0.0237705622447208
16.1331,0.0192616664587933
16.1332,0.0392296334208178
16.1333,0.0505018727340803
16.1334,0.0447047210961874
16.1335,0.0566210883315907
16.1336,0.0273132660681443
16.1337,0.0469591689576025
16.1338,0.00412465908880155
16.1339,-0.0123006043857534
16.134,-0.00682551654230643
16.1341,0.0411620173081803
16.1342,0.068859519465221
16.1343,0.0666050716308958
16.1344,0.0137865787025428
16.1345,0.0199057944289462
16.1346,0.00476878706481028
16.1347,0.0221602423225507
16.1348,0.0398737613835076
16.1349,0.0376193135130596
16.135,0.00348053111253982
16.1351,-0.0164874362787446
16.1352,-0.0045710686122036
16.1353,-0.0290479320247043
16.1354,-0.0335568279583353
16.1355,-0.0428966838632376
16.1356,-0.0583557558336196
16.1357,-0.0664073558824929
16.1358,-0.0709162519294057
16.1359,-0.0825105561153398
16.136,-0.0644749718666975
16.1361,-0.131142221956276
16.1362,-0.145957166871243
16.1363,-0.178485633488994
16.1364,-0.171400224846121
16.1365,-0.178807697519192
16.1366,-0.181384209763851
16.1367,-0.182994529919543
16.1368,-0.179451825579845
16.1369,-0.191368194763807
16.137,-0.211014100976003
16.1371,-0.234202712014537
16.1372,-0.245797017711583
16.1373,-0.238067480566894
16.1374,-0.220998086226776
16.1375,-0.220998086226776
16.1376,-0.195232963173207
16.1377,-0.178807697519192
16.1378,-0.189435810563795
16.1379,-0.193944707035348
16.138,-0.161416240009461
16.1381,-0.163992752217676
16.1382,-0.141126206554165
16.1383,-0.170111968733634
16.1384,-0.150788127206613
16.1385,-0.151110191229624
16.1386,-0.127277453745414
16.1387,-0.132752542047511
16.1388,-0.0982916925221795
16.1389,-0.0525586038258508
16.139,-0.0490158998322928
16.1391,-0.0387098518987582
16.1392,-0.0206742681828434
16.1393,-0.00296074866405968
16.1394,0.00702323497885307
16.1395,0.003158467124314
16.1396,0.0189396024736248
16.1397,-0.035489211933952
16.1398,-0.0406422358809226
16.1399,-0.0119785403944425
16.14,-0.0187418842257198
16.1401,-0.00553726058186114
16.1402,0.0302118419182292
16.1403,0.0282794580187153
16.1404,0.0186175384883948
16.1405,-0.00167249270669854
16.1406,0.0224823063071067
16.1407,-0.0142329883349899
16.1408,0.00122608319362708
16.1409,0.0182954745031033
16.141,0.0237705622447208
16.1411,0.0253808821653689
16.1412,-0.0200301401968711
16.1413,-0.00296074866405968
16.1414,-0.0193860122111633
16.1415,-0.0403201718837238
16.1416,-0.0403201718837238
16.1417,-0.077357532021023
16.1418,-0.0837988121418595
16.1419,-0.0805781720777695
16.142,-0.104732972740119
16.1421,-0.0725265719495877
16.1422,-0.0428966838632376
16.1423,-0.054168923825722
16.1424,-0.0876635802285156
16.1425,-0.0905621563005241
16.1426,-0.0792899160541919
16.1427,-0.0902400922922251
16.1428,-0.103766780705489
16.1429,-0.104088844716956
16.143,-0.0989358205426082
16.1431,-0.0966813724724297
16.1432,-0.0908842203088977
16.1433,-0.0889518362597748
16.1434,-0.106665356811441
16.1435,-0.0635087798597656
16.1436,-0.0957151804434846
16.1437,-0.0786457880428429
16.1438,-0.0776795960263683
16.1439,-0.0419304918704042
16.144,-0.0490158998322928
16.1441,-0.0763913400054253
16.1442,-0.034200955949936
16.1443,-0.0306582519994828
16.1444,-0.0219625241555832
16.1445,-0.0686618039041852
16.1446,-0.077357532021023
16.1447,-0.0696279959145612
16.1448,-0.0924945403518867
16.1449,-0.105377100763587
16.145,-0.0844429401555621
16.1451,-0.0886297722518484
16.1452,-0.116971405238587
16.1453,-0.103444716694098
16.1454,-0.128887773831886
16.1455,-0.114072829110454
16.1456,-0.0741368919715813
16.1457,-0.0274376120516068
16.1458,-0.0261493560743358
16.1459,-0.0641529078643154
16.146,-0.0528806678256847
16.1461,-0.0696279959145612
16.1462,-0.098613756532356
16.1463,-0.0905621563005241
16.1464,-0.0847650041625243
16.1465,-0.107309484835827
16.1466,-0.109241868910827
16.1467,-0.0670514838883315
16.1468,-0.0667294198853763
16.1469,-0.111174252988594
16.147,-0.112462509041981
16.1471,-0.0992578845529359
16.1472,-0.0809002360838474
16.1473,-0.0886297722518484
16.1474,-0.0805781720777695
16.1475,-0.0809002360838474
16.1476,-0.0387098518987582
16.1477,-0.0206742681828434
16.1478,-0.00682551654230643
16.1479,0.00251433914767223
16.148,0.000259891227425618
16.1481,0.0160410266043375
16.1482,0.0343986736930971
16.1483,0.0717580952482195
16.1484,0.0756228629519451
16.1485,0.0546887044609256
16.1486,0.0488915528365494
16.1487,0.032466289798261
16.1488,0.0315000978500358
16.1489,0.0456709130371433
16.149,0.0881833579350554
16.1491,0.0730463511503398
16.1492,0.0353648656397099
16.1493,0.0266691381007947
16.1494,-0.0010283647284018
16.1495,-0.00231662068525108
16.1496,0.0147527706608265
16.1497,-0.0132667963600776
16.1498,-0.0187418842257198
16.1499,-0.0161653722865828
16.15,-0.0171315642632655
16.1501,-0.0119785403944425
16.1502,-0.0377436599085999
16.1503,-0.0461173238438334
16.1504,-0.0399981078865937
16.1505,-0.0396760438895321
16.1506,-0.0132667963600776
16.1507,-0.0251831640920849
16.1508,0.00058195521622309
16.1509,-0.00714758053257906
16.151,-0.034200955949936
16.1511,-0.034200955949936
16.1512,-0.0474055798380097
16.1513,-0.00875790048491204
16.1514,-0.0255052280861017
16.1515,-0.0219625241555832
16.1516,-0.0406422358809226
16.1517,-0.0651190998716763
16.1518,-0.0899180282840007
16.1519,-0.0441849398546469
16.152,-0.0106902844298503
16.1521,0.00702323497885307
16.1522,-0.0206742681828434
16.1523,-0.0010283647284018
16.1524,0.00412465908880155
16.1525,-0.00811377250378474
16.1526,-0.0161653722865828
16.1527,-0.0329126999670058
16.1528,0.0028364031360248
16.1529,0.00959974687684322
16.153,0.0108880028243349
16.1531,-0.0290479320247043
16.1532,-0.0197080762039841
16.1533,-0.0151991803104913
16.1534,0.00541291504056634
16.1535,-0.00392694063275344
16.1536,0.0157189626185526
16.1537,-0.0235728441230019
16.1538,-0.00585932457187577
16.1539,-0.0213183961690807
16.154,-0.0123006043857534
16.1541,-0.0309803159946406
16.1542,-0.0461173238438334
16.1543,-0.0480497078355144
16.1544,-0.0847650041625243
16.1545,-0.083476748135119
16.1546,-0.0918504123344668
16.1547,-0.0686618039041852
16.1548,-0.0899180282840007
16.1549,-0.0792899160541919
16.155,-0.117937597282698
16.1551,-0.104732972740119
16.1552,-0.0815443640962237
16.1553,-0.091528348325869
16.1554,-0.0780016600317867
16.1555,-0.0625425878534761
16.1556,-0.0625425878534761
16.1557,-0.0567454358291715
16.1558,-0.0921724763431393
16.1559,-0.0950710524245642
16.156,-0.0918504123344668
16.1561,-0.11439489312438
16.1562,-0.129209837849418
16.1563,-0.137583502333191
16.1564,-0.143702718721004
16.1565,-0.101512332627351
16.1566,-0.109885996936441
16.1567,-0.0831546841284522
16.1568,-0.0937827963876253
16.1569,-0.10859774088552
16.157,-0.0854091321766705
16.1571,-0.0647970358691511
16.1572,-0.0812223000899988
16.1573,-0.0676956118944573
16.1574,-0.0905621563005241
16.1575,-0.114716957138384
16.1576,-0.107631548848135
16.1577,-0.0828326201218592
16.1578,-0.0876635802285156
16.1579,-0.079934044065834
16.158,-0.0899180282840007
16.1581,-0.0763913400054253
16.1582,-0.0905621563005241
16.1583,-0.0686618039041852
16.1584,-0.0941048603967474
16.1585,-0.0744589559761979
16.1586,-0.0802561080717651
16.1587,-0.0693059319110305
16.1588,-0.103122652682783
16.1589,-0.0618984598496394
16.159,-0.0396760438895321
16.1591,-0.0515924118267691
16.1592,-0.0206742681828434
16.1593,-0.0451511318489289
16.1594,-0.0325906359714425
16.1595,-0.0696279959145612
16.1596,-0.0577116278316284
16.1597,-0.0564233718284937
16.1598,-0.0641529078643154
16.1599,-0.0596440118384516
16.16,-0.0174536282556246
16.1601,-0.00714758053257906
16.1602,0.00412465908880155
16.1603,-0.0010283647284018
16.1604,0.00734529896632158
16.1605,-0.0303361880043924
16.1606,-0.035489211933952
16.1607,-0.050626219828317
16.1608,-0.0200301401968711
16.1609,-0.0622205238515221
16.161,-0.0432187478609865
16.1611,-0.0999020125738185
16.1612,-0.0647970358691511
16.1613,-0.0918504123344668
16.1614,-0.0686618039041852
16.1615,-0.0831546841284522
16.1616,-0.0918504123344668
16.1617,-0.0577116278316284
16.1618,-0.0474055798380097
16.1619,-0.0651190998716763
16.162,-0.0699500599181641
16.1621,-0.0844429401555621
16.1622,-0.0432187478609865
16.1623,-0.0132667963600776
16.1624,-0.0238949081166852
16.1625,-0.0370995319155025
16.1626,-0.0284038040352639
16.1627,-0.0229287161358349
16.1628,-0.0554571798268835
16.1629,-0.0673735478913585
16.163,-0.0348450839418082
16.1631,-0.0976475645020532
16.1632,-0.0757472119953915
16.1633,-0.0825105561153398
16.1634,-0.0374215959120171
16.1635,-0.0580336918325886
16.1636,-0.0638308438620048
16.1637,-0.0612543318460875
16.1638,-0.0251831640920849
16.1639,-0.0345230199458382
16.164,-0.0606102038428201
16.1641,-0.0467614518407829
16.1642,-0.065441163874273
16.1643,-0.0564233718284937
16.1644,-0.0271155480571886
16.1645,-0.0570674998299198
16.1646,-0.0982916925221795
16.1647,-0.0821884921088941
16.1648,-0.070272123921839
16.1649,-0.0754251479904839
16.165,-0.0599660758398368
16.1651,-0.0709162519294057
16.1652,-0.0267934840628374
16.1653,-0.0158433082944867
16.1654,-0.0161653722865828
16.1655,-0.0132667963600776
16.1656,-0.0123006043857534
16.1657,0.0266691381007947
16.1658,-0.0010283647284018
16.1659,0.0134645147163241
16.166,0.0112100668110517
16.1661,-0.0010283647284018
16.1662,0.00992181086380993
16.1663,-0.0119785403944425
16.1664,-0.00875790048491204
16.1665,-0.00907996447557287
16.1666,-0.022284588148934
16.1667,-0.0332347639626367
16.1668,-0.0300141240093694
16.1669,-0.0113344124120162
16.167,-0.0319465079805191
16.1671,-0.00714758053257906
16.1672,-0.00714758053257906
16.1673,-0.0197080762039841
16.1674,-0.00940202846629852
16.1675,-0.0612543318460875
16.1676,-0.0670514838883315
16.1677,-0.0731706999581675
16.1678,-0.0528806678256847
16.1679,-0.058999883835894
16.168,-0.0631867158575977
16.1681,-0.0918504123344668
16.1682,-0.0538468598256074
16.1683,-0.0432187478609865
16.1684,-0.0544909878259069
16.1685,-0.0693059319110305
16.1686,-0.0596440118384516
16.1687,-0.0309803159946406
16.1688,-0.0416084278729307
16.1689,-0.0383877879019704
16.169,-0.0428966838632376
16.1691,-0.0490158998322928
16.1692,-0.0396760438895321
16.1693,-0.0480497078355144
16.1694,-0.0596440118384516
16.1695,-0.0660852918796813
16.1696,-0.0599660758398368
16.1697,-0.0561013078278865
16.1698,-0.041286363875526
16.1699,-0.0918504123344668
16.17,-0.0886297722518484
16.1701,-0.0747810199808871
16.1702,-0.0973255004921033
16.1703,-0.0583557558336196
16.1704,-0.065441163874273
16.1705,-0.0306582519994828
16.1706,-0.0618984598496394
16.1707,-0.0902400922922251
16.1708,-0.0908842203088977
16.1709,-0.0970034364822288
16.171,-0.106343292799363
16.1711,-0.143380654699866
16.1712,-0.145635102849536
16.1713,-0.164314816244078
16.1714,-0.221642214310439
16.1715,-0.223252534521181
16.1716,-0.256103067321534
16.1717,-0.261900220269598
16.1718,-0.247729402006132
16.1719,-0.270918013805785
16.172,-0.263832604592465
16.1721,-0.28702121673738
16.1722,-0.307955380916458
16.1723,-0.255136875166508
16.1724,-0.250950042504535
16.1725,-0.25803545163414
16.1726,-0.26157815621612
16.1727,-0.250305914404105
16.1728,-0.201030115810881
16.1729,-0.197487411417821
16.173,-0.184282786045639
16.1731,-0.176231185279989
16.1732,-0.184604850077378
16.1733,-0.141448270574737
16.1734,-0.111174252988594
16.1735,-0.102800588671545
16.1736,-0.132752542047511
16.1737,-0.115361085166626
16.1738,-0.110530124962364
16.1739,-0.0751030839856492
16.174,-0.0866973882058513
16.1741,-0.0577116278316284
16.1742,-0.0857311961838546
16.1743,-0.0738148279670374
16.1744,-0.0883077082439964
16.1745,-0.0644749718666975
16.1746,0.0028364031360248
16.1747,-0.00360487664312469
16.1748,-0.0335568279583353
16.1749,-0.0271155480571886
16.175,-0.0345230199458382
16.1751,-0.0332347639626367
16.1752,-0.0238949081166852
16.1753,-0.0164874362787446
16.1754,-0.0332347639626367
16.1755,-0.0474055798380097
16.1756,-0.0351671479378461
16.1757,-0.0416084278729307
16.1758,-0.0251831640920849
16.1759,-0.0390319158956144
16.176,-0.0200301401968711
16.1761,-0.0284038040352639
16.1762,-0.041286363875526
16.1763,-0.054168923825722
16.1764,-0.012944732368571
16.1765,-0.00940202846629852
16.1766,0.0157189626185526
16.1767,0.0179734105177503
16.1768,0.00058195521622309
16.1769,0.0372972495313305
16.177,0.0392296334208178
16.1771,0.0353648656397099
16.1772,0.0430944011934264
16.1773,0.0244146902131624
16.1774,0.0137865787025428
16.1775,0.0237705622447208
16.1776,0.0189396024736248
16.1777,0.0308559698842525
16.1778,0.0347207376753609
16.1779,0.0440605931352583
16.178,0.0463150409974893
16.1781,0.0228043702916017
16.1782,0.00187021117077668
16.1783,0.0157189626185526
16.1784,0.0128203867437003
16.1785,0.0469591689576025
16.1786,0.0566210883315907
16.1787,0.0859289101235916
16.1788,0.10235417269089
16.1789,0.10138798077892
16.179,0.141968040695153
16.1791,0.220229582794939
16.1792,0.290439524025277
16.1793,0.307830977130472
16.1794,0.283676181128687
16.1795,0.299457314534366
16.1796,0.337460860022482
16.1797,0.366124550894303
16.1798,0.359361208119402
16.1799,0.401873648282973
16.18,0.423451932197138
16.1801,0.46532024411587
16.1802,0.46532024411587
16.1803,0.475304226166226
16.1804,0.486898527894283
16.1805,0.483033760652432
16.1806,0.455658325995528
16.1807,0.436978617605823
16.1808,0.430215274904124
16.1809,0.395432369489756
16.181,0.416044461606805
16.1811,0.360649463886736
16.1812,0.316848767598412
16.1813,0.323612110436135
16.1814,0.309119232912869
16.1815,0.316526703653479
16.1816,0.312984000257519
16.1817,0.310085424749387
16.1818,0.270793623193987
16.1819,0.258555193109871
16.182,0.246960890881477
16.1821,0.212177983924416
16.1822,0.198651297767857
16.1823,0.15388440735177
16.1824,0.0730463511503398
16.1825,0.0237705622447208
16.1826,-0.00360487664312469
16.1827,-0.0490158998322928
16.1828,-0.0744589559761979
16.1829,-0.104088844716956
16.183,-0.158195599756674
16.1831,-0.18106214573297
16.1832,-0.209725844820877
16.1833,-0.23452477606006
16.1834,-0.30086997145486
16.1835,-0.358519440787667
16.1836,-0.414236528925185
16.1837,-0.434848631745792
16.1838,-0.496362878967139
16.1839,-0.522772138302554
16.184,-0.55852125900723
16.1841,-0.630663633684782
16.1842,-0.655462576576033
16.1843,-0.665446566808913
16.1844,-0.707959042909865
16.1845,-0.742741979827354
16.1846,-0.735656566608334
16.1847,-0.718587162337018
16.1848,-0.713756198940848
16.1849,-0.697975052080583
16.185,-0.689923446676545
16.1851,-0.680905648732871
16.1852,-0.615204552821871
16.1853,-0.535010575842969
16.1854,-0.506346867153737
16.1855,-0.434848631745792
16.1856,-0.375266773292896
16.1857,-0.315362854496656
16.1858,-0.291530113602043
16.1859,-0.229049687298638
16.186,-0.151110191229624
16.1861,-0.118581725312494
16.1862,-0.0548130518261621
16.1863,-0.0544909878259069
16.1864,-0.0509482838277311
16.1865,0.0202278584139306
16.1866,0.062740303908549
16.1867,0.0807758865446836
16.1868,0.138747401047346
16.1869,0.181581907993434
16.187,0.178039204440788
16.1871,0.214110367655498
16.1872,0.199939553595274
16.1873,0.256300745457719
16.1874,0.29301603560157
16.1875,0.307508913184806
16.1876,0.303966209780708
16.1877,0.294304291389031
16.1878,0.276590774270625
16.1879,0.283354117180907
16.188,0.294626355335825
16.1881,0.254690425705196
16.1882,0.271115687142952
16.1883,0.221195774657825
16.1884,0.197040977982688
16.1885,0.196396850068341
16.1886,0.188345251125358
16.1887,0.151629959610733
16.1888,0.105574812394121
16.1889,0.0701477753693288
16.189,0.0534004485460061
16.1891,0.00831149092835008
16.1892,0.00412465908880155
16.1893,-0.0213183961690807
16.1894,-0.041286363875526
16.1895,-0.0705941879255862
16.1896,-0.0596440118384516
16.1897,-0.0789678520484807
16.1898,-0.0805781720777695
16.1899,-0.0847650041625243
16.19,-0.10795361286052
16.1901,-0.166569264431234
16.1902,-0.250950042504535
16.1903,-0.270918013805785
16.1904,-0.293140433915539
16.1905,-0.29668313861395
16.1906,-0.302802355848663
16.1907,-0.341772108571415
16.1908,-0.358197376703877
16.1909,-0.408439375091144
16.191,-0.383318375563337
16.1911,-0.387827272864736
16.1912,-0.427441157240448
16.1913,-0.427441157240448
16.1914,-0.433238311195946
16.1915,-0.421644003322261
16.1916,-0.401998093096204
16.1917,-0.396845067532551
16.1918,-0.388471401052413
16.1919,-0.375266773292896
16.192,-0.391692041997437
16.1921,-0.413270336616962
16.1922,-0.391692041997437
16.1923,-0.363028337971959
16.1924,-0.33114399404312
16.1925,-0.272850398144765
16.1926,-0.235490968197182
16.1927,-0.245152889614147
16.1928,-0.215845061570449
16.1929,-0.204250756177439
16.193,-0.148533679047822
16.1931,-0.106665356811441
16.1932,-0.0892739002677756
16.1933,-0.109563932923596
16.1934,-0.0995799485633393
16.1935,-0.0728486359538413
16.1936,-0.00714758053257906
16.1937,0.00895561890272198
16.1938,0.027957394035252
16.1939,-0.00328281265356012
16.194,0.0257029461493163
16.1941,0.00895561890272198
16.1942,0.0102438748507141
16.1943,-0.00360487664312469
16.1944,0.0166851545757219
16.1945,0.0447047210961874
16.1946,0.0366531215676944
16.1947,0.0273132660681443
16.1948,0.0282794580187153
16.1949,0.0292456499687433
16.195,-6.21727614355805e-05
16.1951,0.0137865787025428
16.1952,0.0192616664587933
16.1953,0.0186175384883948
16.1954,-0.00038423675036052
16.1955,0.0173292825468594
16.1956,0.00927768288981391
16.1957,0.0289235859854609
16.1958,0.0124983227572952
16.1959,0.0282794580187153
16.196,-0.00972409245708906
16.1961,0.0166851545757219
16.1962,0.00702323497885307
16.1963,-0.00263868467462335
16.1964,-0.00650345255209836
16.1965,-0.0216404601622988
16.1966,0.00348053111253982
16.1967,-0.0123006043857534
16.1968,-0.00328281265356012
16.1969,-0.0232507801293851
16.197,-0.0258272920801853
16.1971,-0.0335568279583353
16.1972,0.00573497902834971
16.1973,-0.0280817400406444
16.1974,-0.068017675897628
16.1975,-0.0625425878534761
16.1976,-0.0435408118588043
16.1977,-0.0445070038526718
16.1978,-0.00843583649431601
16.1979,0.00122608319362708
16.198,-0.00940202846629852
16.1981,-0.0325906359714425
16.1982,-0.0509482838277311
16.1983,-0.0783237240372782
16.1984,-0.0818664281025221
16.1985,-0.0837988121418595
16.1986,-0.0567454358291715
16.1987,-0.0889518362597748
16.1988,-0.0606102038428201
16.1989,-0.070272123921839
16.199,-0.0657632278769413
16.1991,-0.0409642998781899
16.1992,-0.0512703478272151
16.1993,-0.0245390361042517
16.1994,0.00831149092835008
16.1995,-0.0251831640920849
16.1996,-0.00875790048491204
16.1997,-0.0483717718343709
16.1998,-0.035811275930126
16.1999,-0.0116564764031968
16.2,-0.0137490043323242
16.2001,-0.0314625239705404
16.2002,0.00396451510812702
16.2003,-0.00022231674211011
16.2004,-0.00151057269819276
16.2005,0.0126602427630258
16.2006,-0.00408708461342797
16.2007,-0.0185799642137717
16.2008,-0.0227667961230258
16.2009,-0.00473121259287813
16.201,0.00718515498564705
16.2011,0.0220000983418762
16.2012,-0.012138684375117
16.2013,0.014592626680152
16.2014,-0.0092401084562474
16.2015,0.00654102701064715
16.2016,-0.0147151963074327
16.2017,0.0165250105950474
16.2018,0.0149146906661226
16.2019,0.0551726884373677
16.202,0.0490534728354966
16.2021,0.0516299846703922
16.2022,0.0471210889568975
16.2023,0.0416460012894892
16.2024,0.0194235864632259
16.2025,0.0152367546520313
16.2026,-0.0208344121635179
16.2027,-0.0060194685525503
16.2028,0.00782928296039551
16.2029,0.0113719868170315
16.203,-0.0356493559146265
16.2031,-0.0501422358103726
16.2032,-0.0366155479033525
16.2033,-0.0350052279224827
16.2034,-0.0301742679900439
16.2035,-0.0446671478333464
16.2036,-0.0375817398926916
16.2037,-0.0379038038892744
16.2038,-0.0929767483413834
16.2039,-0.102638668641057
16.204,-0.122928701494466
16.2041,-0.10972407690427
16.2042,-0.124216957559069
16.2043,-0.126793469692054
16.2044,-0.124216957559069
16.2045,-0.131624429955038
16.2046,-0.125183149608347
16.2047,-0.125827277641593
16.2048,-0.100706284575679
16.2049,-0.10714756480427
16.205,-0.111334396969269
16.2051,-0.0746190999568724
16.2052,-0.0665674998631675
16.2053,-0.038547931882645
16.2054,-0.06431305184499
16.2055,-0.0649571798498257
16.2056,-0.0337169719390099
16.2057,-0.055617323807558
16.2058,-0.0533628758062633
16.2059,-0.0804162520524396
16.206,-0.0762294199810465
16.2061,-0.06431305184499
16.2062,-0.0939429403682998
16.2063,-0.118097741263372
16.2064,-0.127759661743225
16.2065,-0.156101295565325
16.2066,-0.155457167516919
16.2067,-0.115843293161537
16.2068,-0.0862134041717872
16.2069,-0.046277467824508
16.207,-0.0240550520973597
16.2071,-0.0182579002212149
16.2072,-0.00827391648445927
16.2073,-0.0079518524939927
16.2074,0.016847074580647
16.2075,-0.0308183959801573
16.2076,-0.0498201718111678
16.2077,-0.0430568278439122
16.2078,-0.0614144758267621
16.2079,-0.0813824440706733
16.208,-0.0314625239705404
16.2081,-0.0408023798615971
16.2082,-0.0246991800849262
16.2083,-0.0343610999306106
16.2084,-0.0366155479033525
16.2085,-0.0665674998631675
16.2086,-0.0646351158473721
16.2087,-0.118419805278232
16.2088,-0.114877101119059
16.2089,-0.0971635804629033
16.209,-0.0765514839860998
16.2091,-0.073974971947712
16.2092,-0.0910443642895722
16.2093,-0.073330843938842
16.2094,-0.0701102038988386
16.2095,-0.0865354681791194
16.2096,-0.0507863638089915
16.2097,-0.0594820918178119
16.2098,-0.0491760438129674
16.2099,-0.0504642998096472
16.21,-0.0411244438588645
16.2101,-0.012138684375117
16.2102,-0.0311404599753151
16.2103,-0.0304963319850669
16.2104,-0.0198682201846587
16.2105,-0.0317845879658332
16.2106,-0.100384220565048
16.2107,-0.127437597726089
16.2108,-0.126793469692054
16.2109,-0.0846030841362367
16.211,-0.126793469692054
16.2111,-0.150948271187287
16.2112,-0.139998094453358
16.2113,-0.0939429403682998
16.2114,-0.0775176760016976
16.2115,-0.0469215958214574
16.2116,-0.072364651926081
16.2117,-0.0610924118250928
16.2118,-0.0781618040124612
16.2119,-0.0746190999568724
16.212,-0.0472436598200361
16.2121,-0.0659233718576158
16.2122,-0.0530408118063593
16.2123,-0.0710763959100802
16.2124,-0.0891119802404493
16.2125,-0.0469215958214574
16.2126,-0.0842810201293484
16.2127,-0.0520746198070675
16.2128,-0.0388699958794327
16.2129,-0.0272756920378631
16.213,-0.0327507799521171
16.2131,-0.0179358362287241
16.2132,-0.0221226681362577
16.2133,-0.0308183959801573
16.2134,-0.0185799642137717
16.2135,-0.00183263668737307
16.2136,-0.0456333398278357
16.2137,-0.0530408118063593
16.2138,-0.0533628758062633
16.2139,-0.0514304918078897
16.214,-0.0237329881036764
16.2141,0.0036424511200278
16.2142,-0.00827391648445927
16.2143,-0.0169696442516467
16.2144,-0.00891804446558657
16.2145,0.00332038713186529
16.2146,0.0036424511200278
16.2147,-0.0581938358132632
16.2148,-0.0488539798139716
16.2149,-0.0430568278439122
16.215,-0.0424126998486211
16.2151,-0.055617323807558
16.2152,-0.0472436598200361
16.2153,-0.0395141238732135
16.2154,-0.0420906358510788
16.2155,-0.0379038038892744
16.2156,-0.0549731958068366
16.2157,-0.0140710683239616
16.2158,-0.0131048763492455
16.2159,-0.00312089264473421
16.216,-0.0375817398926916
16.2161,-0.0362934839070425
16.2162,-0.0504642998096472
16.2163,-0.0713984599139719
16.2164,-0.0482098518161889
16.2165,-0.0530408118063593
16.2166,-0.0356493559146265
16.2167,-0.0578717718123029
16.2168,-0.0916884923065435
16.2169,-0.073330843938842
16.217,-0.0958753244241592
16.2171,-0.0949091323958913
16.2172,-0.101350412597168
16.2173,-0.0662454358603558
16.2174,-0.0627027318341506
16.2175,-0.0527187478065253
16.2176,-0.0678557558751318
16.2177,-0.073330843938842
16.2178,-0.0810603800645219
16.2179,-0.046277467824508
16.218,-0.0475657238186842
16.2181,-0.0839589561225341
16.2182,-0.0614144758267621
16.2183,-0.0578717718123029
16.2184,-0.0472436598200361
16.2185,-0.0343610999306106
16.2186,-0.0317845879658332
16.2187,-0.0060194685525503
16.2188,0.0100837308700396
16.2189,-0.00827391648445927
16.219,0.00557483504767518
16.2191,0.00718515498564705
16.2192,-0.01729170824394
16.2193,-0.0317845879658332
16.2194,-0.0137490043323242
16.2195,-0.0118166203838713
16.2196,-0.0221226681362577
16.2197,0.0165250105950474
16.2198,0.0387474254587098
16.2199,0.0110499228303772
16.22,0.00203213117858167
16.2201,-0.0156813882831307
16.2202,-0.0166475802594191
16.2203,0.0178132665370757
16.2204,0.0448666410958898
16.2205,0.0667669916267203
16.2206,0.0622580959506479
16.2207,0.0664449276502212
16.2208,0.0390694894401433
16.2209,0.0509858567120142
16.221,0.0184573945077203
16.2211,0.0248986742006863
16.2212,0.0384253614772173
16.2213,0.00911753890913938
16.2214,-0.0092401084562474
16.2215,-0.0143931323156645
16.2216,-0.00473121259287813
16.2217,-0.0353272919185206
16.2218,-0.00247676466592561
16.2219,-0.0079518524939927
16.222,-0.012138684375117
16.2221,-0.0140710683239616
16.2222,-0.0382258678859255
16.2223,-0.0601262198205113
16.2224,-0.0453112758296034
16.2225,-0.0662454358603558
16.2226,-0.073330843938842
16.2227,-0.062058603830314
16.2228,-0.10585930875611
16.2229,-0.143218734659484
16.223,-0.157711615687786
16.2231,-0.170594176742304
16.2232,-0.162542576067592
16.2233,-0.164797024251239
16.2234,-0.208597732647848
16.2235,-0.239193816687733
16.2236,-0.207631540533503
16.2237,-0.178967841499867
16.2238,-0.160610191913428
16.2239,-0.129047917812561
16.224,-0.140642222493937
16.2241,-0.146117310851917
16.2242,-0.165763216331197
16.2243,-0.149660015096059
16.2244,-0.132912686028185
16.2245,-0.127437597726089
16.2246,-0.165119088277808
16.2247,-0.140642222493937
16.2248,-0.155135103492839
16.2249,-0.1238948935428
16.225,-0.144184926722898
16.2251,-0.141286350534839
16.2252,-0.109402012891501
16.2253,-0.0736529079432407
16.2254,-0.0891119802404493
16.2255,-0.0926546843325612
16.2256,-0.111978524995808
16.2257,-0.0994180285336104
16.2258,-0.10714756480427
16.2259,-0.0784838680179527
16.226,-0.0617365398285024
16.2261,-0.0813824440706733
16.2262,-0.0984518365028541
16.2263,-0.0504642998096472
16.2264,-0.0688219478848598
16.2265,-0.0791279960291553
16.2266,-0.0437009558394789
16.2267,-0.0369376118997307
16.2268,-0.0237329881036764
16.2269,-0.0408023798615971
16.227,-0.075907355976066
16.2271,-0.0710763959100802
16.2272,-0.072364651926081
16.2273,-0.0865354681791194
16.2274,-0.0868575321865258
16.2275,-0.0710763959100802
16.2276,-0.0591600278165685
16.2277,-0.0420906358510788
16.2278,-0.0485319158150455
16.2279,-0.0340390359347763
16.228,-0.0221226681362577
16.2281,-0.0324287159566215
16.2282,-0.0488539798139716
16.2283,-0.0482098518161889
16.2284,-0.0424126998486211
16.2285,-0.0749411639615617
16.2286,-0.0482098518161889
16.2287,-0.0195461561918378
16.2288,0.0248986742006863
16.2289,0.0381032974956657
16.229,0.0313399538693612
16.2291,0.016847074580647
16.2292,0.0506637927327388
16.2293,0.0577492002635538
16.2294,0.051307920691232
16.2295,0.0191015224781188
16.2296,0.0271531220874698
16.2297,0.0361709136051128
16.2298,0.0419680652703928
16.2299,0.0648346077668892
16.23,0.0767509748707604
16.2301,0.0574271362854797
16.2302,0.0274751860710538
16.2303,0.0422901292512378
16.2304,0.0809378065380943
16.2305,0.0255428021686418
16.2306,0.0442225131350775
16.2307,0.0429342572127518
16.2308,0.0245766102166175
16.2309,0.0664449276502212
16.231,0.0500196647740151
16.2311,0.054206496501607
16.2312,0.0316620178521629
16.2313,0.0300516979375546
16.2314,0.059037456175283
16.2315,0.0480872808964578
16.2316,0.0281193140380408
16.2317,0.00493070707204535
16.2318,0.00847341093489285
16.2319,0.0197456504482717
16.232,-0.0259874360608598
16.2321,-0.0765514839860998
16.2322,-0.0491760438129674
16.2323,-0.0491760438129674
16.2324,-0.0398361878702066
16.2325,-0.043378891841661
16.2326,-0.0701102038988386
16.2327,-0.0894340442484501
16.2328,-0.0804162520524396
16.2329,-0.0768735479912261
16.233,-0.121318381415479
16.2331,-0.138387774353319
16.2332,-0.161898448015871
16.2333,-0.210530116878936
16.2334,-0.208597732647848
16.2335,-0.212140437073959
16.2336,-0.246923353839112
16.2337,-0.245313033594821
16.2338,-0.262704492357513
16.2339,-0.243058585256729
16.234,-0.254974955095696
16.2341,-0.242414457160969
16.2342,-0.241126200970562
16.2343,-0.276875310813837
16.2344,-0.275587054582822
16.2345,-0.259483851825114
16.2346,-0.224378870629387
16.2347,-0.239193816687733
16.2348,-0.23371872790444
16.2349,-0.213750757271212
16.235,-0.217293461713046
16.2351,-0.193782786981776
16.2352,-0.163830832172032
16.2353,-0.146439374873705
16.2354,-0.111334396969269
16.2355,-0.0929767483413834
16.2356,-0.0997400925440139
16.2357,-0.122928701494466
16.2358,-0.0891119802404493
16.2359,-0.0437009558394789
16.236,-0.0691440118882464
16.2361,-0.0552952598071621
16.2362,-0.0408023798615971
16.2363,-0.0218006041429733
16.2364,0.00943960289616869
16.2365,0.00106593921295255
16.2366,0.0136264347218683
16.2367,0.0174912025516611
16.2368,0.0178132665370757
16.2369,0.00332038713186529
16.237,0.015558818637878
16.2371,-0.0156813882831307
16.2372,-0.00569740456253567
16.2373,0.0120161147901532
16.2374,-0.0111724924015752
16.2375,-0.00698566052298095
16.2376,0.0203897784181791
16.2377,0.0210339063878415
16.2378,0.0429342572127518
16.2379,0.016202946609386
16.238,0.0181353305224288
16.2381,-0.00762978850359083
16.2382,-0.00151057269819276
16.2383,-0.0192240921990831
16.2384,-0.0227667961230258
16.2385,-0.0314625239705404
16.2386,-0.0282418840213189
16.2387,-0.0092401084562474
16.2388,-0.0234109241100596
16.2389,-0.0221226681362577
16.239,-0.0201902841775456
16.2391,-0.0201902841775456
16.2392,-0.0343610999306106
16.2393,-0.0401582518672682
16.2394,-0.0491760438129674
16.2395,-0.0639909878426793
16.2396,-0.0639909878426793
16.2397,-0.0710763959100802
16.2398,-0.0379038038892744
16.2399,-0.0546511318065814
16.24,-0.0292080760053788
16.2401,-0.0198682201846587
16.2402,-0.0179358362287241
16.2403,-0.0417685718536053
16.2404,-0.0379038038892744
16.2405,-0.0189020282063944
16.2406,-0.0240550520973597
16.2407,0.00171006719010215
16.2408,-0.0108504284105248
16.2409,0.0129823067493688
16.241,0.0248986742006863
16.2411,0.0316620178521629
16.2412,0.0194235864632259
16.2413,0.0429342572127518
16.2414,0.0612919040186307
16.2415,0.020067714433256
16.2416,0.0384253614772173
16.2417,0.0287634420047864
16.2418,0.033594401747716
16.2419,0.0554947524158403
16.242,0.0461548970168147
16.2421,0.0300516979375546
16.2422,0.0210339063878415
16.2423,0.0036424511200278
16.2424,0.00557483504767518
16.2425,0.0265089941201202
16.2426,0.00106593921295255
16.2427,-0.010206300428619
16.2428,9.9747246751089e-05
16.2429,0.0242545462324879
16.243,0.0226442263109272
16.2431,-0.0105283644195394
16.2432,-0.0279198200267666
16.2433,-0.0391920598762889
16.2434,-0.0308183959801573
16.2435,-0.0314625239705404
16.2436,0.0097616668831354
16.2437,-0.00151057269819276
16.2438,-0.00634153254262936
16.2439,-0.00473121259287813
16.244,-0.00344295663423465
16.2441,-0.0253433080727595
16.2442,-0.0060194685525503
16.2443,-0.00891804446558657
16.2444,-0.0417685718536053
16.2445,-0.0440230198373657
16.2446,-0.0308183959801573
16.2447,-0.0192240921990831
16.2448,9.9747246751089e-05
16.2449,-0.0118166203838713
16.245,-0.00376502062379921
16.2451,0.0458328330366708
16.2452,0.0587153921974357
16.2453,0.0493755368150606
16.2454,0.0458328330366708
16.2455,0.0110499228303772
16.2456,0.0329502737827708
16.2457,0.0152367546520313
16.2458,0.0300516979375546
16.2459,0.0319840818349046
16.246,0.0245766102166175
16.2461,-0.0153593242911658
16.2462,-0.00634153254262936
16.2463,-0.00279882865529787
16.2464,0.00621896302305282
16.2465,0.0139484987080249
16.2466,0.0184573945077203
16.2467,0.0303737619205964
16.2468,0.0171691385661849
16.2469,0.00686309099817854
16.247,-0.0147151963074327
16.2471,-0.0304963319850669
16.2472,-0.0401582518672682
16.2473,-0.0491760438129674
16.2474,-0.0662454358603558
16.2475,-0.101350412597168
16.2476,-0.1155212291473
16.2477,-0.133556814065237
16.2478,-0.147727630961668
16.2479,-0.176713393290267
16.248,-0.171560368826796
16.2481,-0.195393107153882
16.2482,-0.209885988801551
16.2483,-0.240804136923192
16.2484,-0.264636876681526
16.2485,-0.234684920040734
16.2486,-0.234684920040734
16.2487,-0.256263211302209
16.2488,-0.233396663859193
16.2489,-0.187019442282633
16.249,-0.200224067683304
16.2491,-0.187019442282633
16.2492,-0.158355743737349
16.2493,-0.156745423614062
16.2494,-0.100384220565048
16.2495,-0.115843293161537
16.2496,-0.0997400925440139
16.2497,-0.134845070140298
16.2498,-0.125183149608347
16.2499,-0.121962509446838
16.25,-0.145473182808586
16.2501,-0.103282796663458
16.2502,-0.0710763959100802
16.2503,-0.0581938358132632
16.2504,-0.0578717718123029
16.2505,-0.0475657238186842
16.2506,-0.072364651926081
16.2507,-0.0581938358132632
16.2508,-0.0704322679025136
16.2509,-0.0826707000960143
16.251,-0.0878237242091901
16.2511,-0.0839589561225341
16.2512,-0.056905579809846
16.2513,-0.085569276157345
16.2514,-0.113266781049813
16.2515,-0.0949091323958913
16.2516,-0.0949091323958913
16.2517,-0.062058603830314
16.2518,-0.0408023798615971
16.2519,-0.0614144758267621
16.252,-0.0726867159302622
16.2521,-0.088789916232523
16.2522,-0.0749411639615617
16.2523,-0.0894340442484501
16.2524,-0.125505213624931
16.2525,-0.122284573462636
16.2526,-0.122928701494466
16.2527,-0.155135103492839
16.2528,-0.127115533709032
16.2529,-0.155779231541081
16.253,-0.122606637478512
16.2531,-0.104893116720793
16.2532,-0.0717205239179359
16.2533,-0.0617365398285024
16.2534,-0.0594820918178119
16.2535,-0.0781618040124612
16.2536,-0.0826707000960143
16.2537,-0.0768735479912261
16.2538,-0.073974971947712
16.2539,-0.0488539798139716
16.254,-0.0482098518161889
16.2541,-0.0259874360608598
16.2542,-0.0656013078549475
16.2543,-0.0817045080768982
16.2544,-0.0594820918178119
16.2545,-0.073330843938842
16.2546,-0.0929767483413834
16.2547,-0.0997400925440139
16.2548,-0.0788059320235174
16.2549,-0.0939429403682998
16.255,-0.056261451808561
16.2551,-0.0604482838219675
16.2552,-0.0498201718111678
16.2553,-0.056905579809846
16.2554,-0.085569276157345
16.2555,-0.0710763959100802
16.2556,-0.0730087799345158
16.2557,-0.0588379638153959
16.2558,-0.0578717718123029
16.2559,-0.0301742679900439
16.256,-0.00827391648445927
16.2561,-0.0304963319850669
16.2562,-0.0446671478333464
16.2563,-0.0266315640492276
16.2564,-0.0208344121635179
16.2565,0.00203213117858167
16.2566,-0.0092401084562474
16.2567,-0.00762978850359083
16.2568,-0.00762978850359083
16.2569,0.00815134694767555
16.257,0.00106593921295255
16.2571,0.00203213117858167
16.2572,-0.0350052279224827
16.2573,-0.0346831639265127
16.2574,-0.0337169719390099
16.2575,-0.0627027318341506
16.2576,-0.0453112758296034
16.2577,-0.0604482838219675
16.2578,-0.0298522039950883
16.2579,-0.0472436598200361
16.258,-0.0401582518672682
16.2581,-0.0401582518672682
16.2582,0.00621896302305282
16.2583,0.0194235864632259
16.2584,-0.00827391648445927
16.2585,0.00686309099817854
16.2586,-0.0111724924015752
16.2587,0.0287634420047864
16.2588,0.0455107690564688
16.2589,0.0661228636736664
16.259,0.0609698400411789
16.2591,0.0545285604802511
16.2592,0.0245766102166175
16.2593,0.00879547492204745
16.2594,0.0522741126285402
16.2595,0.0374591695323851
16.2596,0.0290855059880687
16.2597,0.0403577453652872
16.2598,0.0519520486494949
16.2599,0.080615742564009
16.26,0.0989733890018419
16.2601,0.0934983014856941
16.2602,0.083192254355182
16.2603,0.080615742564009
16.2604,0.092532109569511
16.2605,0.0909217897081533
16.2606,0.0851246381963045
16.2607,0.0980071970883212
16.2608,0.0986513250307202
16.2609,0.141163768785292
16.261,0.153402199408226
16.2611,0.179167316298029
16.2612,0.204288305005576
16.2613,0.229409293474944
16.2614,0.185286531518955
16.2615,0.199779409614599
16.2616,0.213950223674823
16.2617,0.238749148105242
16.2618,0.204610368961779
16.2619,0.220391502768597
16.262,0.215882607404537
16.2621,0.23488438067564
16.2622,0.227798973708056
16.2623,0.204288305005576
16.2624,0.197847025873234
16.2625,0.182065891930876
16.2626,0.18625272339457
16.2627,0.17594667670197
16.2628,0.149215367886791
16.2629,0.126670890328568
16.263,0.103482284592123
16.2631,0.0938203654576502
16.2632,0.0422901292512378
16.2633,0.0342385297124225
16.2634,-0.0140710683239616
16.2635,-0.0324287159566215
16.2636,-0.0742970359522559
16.2637,-0.0536849398062375
16.2638,-0.0904002362728996
16.2639,-0.0997400925440139
16.264,-0.139998094453358
16.2641,-0.149982079118744
16.2642,-0.165441152304461
16.2643,-0.141286350534839
16.2644,-0.153846847397344
16.2645,-0.146117310851917
16.2646,-0.152558591303165
16.2647,-0.188951826478492
16.2648,-0.207953604571529
16.2649,-0.201190259791556
16.265,-0.225667126800699
16.2651,-0.215039013430624
16.2652,-0.248211610036226
16.2653,-0.235973176223747
16.2654,-0.250143994334705
16.2655,-0.254330826993006
16.2656,-0.266247196954164
16.2657,-0.300063923239982
16.2658,-0.303928692027591
16.2659,-0.316811254757626
16.266,-0.32486285654648
16.2661,-0.335168906930051
16.2662,-0.366731186897913
16.2663,-0.361578161527261
16.2664,-0.376393109542418
16.2665,-0.348373534139873
16.2666,-0.316167126617275
16.2667,-0.314878870337794
16.2668,-0.336135099158953
16.2669,-0.322930472111318
16.267,-0.323896664328437
16.2671,-0.309403781168106
16.2672,-0.320676023608295
16.2673,-0.345152893340719
16.2674,-0.32486285654648
16.2675,-0.290402001333699
16.2676,-0.27848563110479
16.2677,-0.282028335753447
16.2678,-0.252398442687199
16.2679,-0.197647555398495
16.268,-0.191206274710929
16.2681,-0.189273890511438
16.2682,-0.129692045847704
16.2683,-0.0833148281091267
16.2684,-0.0900781722646753
16.2685,-0.0826707000960143
16.2686,-0.0978077084827277
16.2687,-0.0881457882168934
16.2688,-0.0614144758267621
16.2689,-0.0275977560322813
16.269,-0.0420906358510788
16.2691,-0.0176137722362991
16.2692,0.0116940508036235
16.2693,-0.0575497078114133
16.2694,-0.0659233718576158
16.2695,-0.108435820853656
16.2696,-0.0900781722646753
16.2697,-0.10907994887881
16.2698,-0.114232973091128
16.2699,-0.111978524995808
16.27,-0.114232973091128
16.2701,-0.111334396969269
16.2702,-0.102960732652219
16.2703,-0.100062156554493
16.2704,-0.0910443642895722
16.2705,-0.106825500792116
16.2706,-0.0775176760016976
16.2707,-0.102960732652219
16.2708,-0.105215180732489
16.2709,-0.10714756480427
16.271,-0.106181372768036
16.2711,-0.0891119802404493
16.2712,-0.104571052709174
16.2713,-0.067211627869006
16.2714,-0.0395141238732135
16.2715,-0.0295301400001999
16.2716,-0.0114945563926907
16.2717,0.0297296339544528
16.2718,0.0284413780214437
16.2719,0.0554947524158403
16.272,0.121195802886223
16.2721,0.152758071482352
16.2722,0.192694002555879
16.2723,0.25388615382328
16.2724,0.260005368879753
16.2725,0.280617461616925
16.2726,0.308637024986635
16.2727,0.292533827673959
16.2728,0.292211763726994
16.2729,0.30670464131272
16.273,0.276752694238361
16.2731,0.207831008521669
16.2732,0.208797200388879
16.2733,0.250665514315079
16.2734,0.265480456025609
16.2735,0.261293624679615
16.2736,0.255818537526606
16.2737,0.228121037661506
16.2738,0.196236706087666
16.2739,0.180133508176023
16.274,0.139553448961506
16.2741,0.160165542619036
16.2742,0.181421764012759
16.2743,0.168861269575605
16.2744,0.133756297586125
16.2745,0.142452024643479
16.2746,0.141163768785292
16.2747,0.172403973141388
16.2748,0.169183333536347
16.2749,0.134400425517481
16.275,0.100261644885811
16.2751,0.0880232139543808
16.2752,0.0538844325229058
16.2753,0.0455107690564688
16.2754,0.0136264347218683
16.2755,-0.00440914860312092
16.2756,-0.0359714199108005
16.2757,-0.0491760438129674
16.2758,-0.0791279960291553
16.2759,-0.088789916232523
16.276,-0.10199454061896
16.2761,-0.118097741263372
16.2762,-0.155135103492839
16.2763,-0.174458945084831
16.2764,-0.200868195755384
16.2765,-0.246923353839112
16.2766,-0.282350399813001
16.2767,-0.309081717100211
16.2768,-0.306183140493694
16.2769,-0.34225431663048
16.277,-0.348695598220369
16.2771,-0.409565711374946
16.2772,-0.418261442148982
16.2773,-0.433720519286358
16.2774,-0.405378878068724
16.2775,-0.428889557652445
16.2776,-0.44080592972997
16.2777,-0.455298814904716
16.2778,-0.471402020936008
16.2779,-0.467215187339104
16.278,-0.494590638151243
16.2781,-0.486216970750591
16.2782,-0.478165367558651
16.2783,-0.478165367558651
16.2784,-0.433076391066999
16.2785,-0.416651121629023
16.2786,-0.384122647728605
16.2787,-0.390241865504217
16.2788,-0.329049689502037
16.2789,-0.319065703252063
16.279,-0.311014101509095
16.2791,-0.291368193520315
16.2792,-0.26399274857314
16.2793,-0.262060364250272
16.2794,-0.264958940735862
16.2795,-0.228565703191472
16.2796,-0.224056806586786
16.2797,-0.180900225682849
16.2798,-0.142574606617612
16.2799,-0.130658237901014
16.28,-0.118097741263372
16.2801,-0.0997400925440139
16.2802,-0.103604860674772
16.2803,-0.0878237242091901
16.2804,-0.0472436598200361
16.2805,-0.00827391648445927
16.2806,-0.0275977560322813
16.2807,-0.0437009558394789
16.2808,-0.0163255162672573
16.2809,-0.0108504284105248
16.281,-0.0224447321296085
16.2811,-0.0285639480159384
16.2812,-0.0330728439476803
16.2813,-0.0588379638153959
16.2814,-0.0546511318065814
16.2815,-0.0594820918178119
16.2816,-0.0369376118997307
16.2817,-0.0794500600348664
16.2818,-0.0565835158091683
16.2819,-0.06431305184499
16.282,-0.0749411639615617
16.2821,-0.069466075891705
16.2822,-0.0504642998096472
16.2823,-0.0304963319850669
16.2824,-0.0201902841775456
16.2825,-0.00376502062379921
16.2826,-0.0189020282063944
16.2827,0.0245766102166175
16.2828,0.00718515498564705
16.2829,0.015558818637878
16.283,9.9747246751089e-05
16.2831,0.0374591695323851
16.2832,0.046799024976928
16.2833,0.0290855059880687
16.2834,0.0477652169166623
16.2835,0.0786833587183614
16.2836,0.046799024976928
16.2837,0.0496976007945667
16.2838,0.0429342572127518
16.2839,0.0670890556031637
16.284,0.0719200152431576
16.2841,0.0699876313886543
16.2842,0.0880232139543808
16.2843,0.0757847829462249
16.2844,0.06805524753216
16.2845,0.0384253614772173
16.2846,0.0152367546520313
16.2847,0.0516299846703922
16.2848,0.00750721897305269
16.2849,-0.00730772451325359
16.285,0.000421811235548561
16.2851,0.00782928296039551
16.2852,0.0374591695323851
16.2853,0.037781233514055
16.2854,0.0104057948568812
16.2855,0.0123381787766206
16.2856,0.0104057948568812
16.2857,0.00428657909616298
16.2858,0.0255428021686418
16.2859,0.0194235864632259
16.286,0.00718515498564705
16.2861,0.00621896302305282
16.2862,-0.0147151963074327
16.2863,0.014592626680152
16.2864,-0.00730772451325359
16.2865,0.00428657909616298
16.2866,-0.00312089264473421
16.2867,-0.0279198200267666
16.2868,-0.0652792438523508
16.2869,-0.088789916232523
16.287,-0.0878237242091901
16.2871,-0.0804162520524396
16.2872,-0.067211627869006
16.2873,-0.0865354681791194
16.2874,-0.080738316058444
16.2875,-0.0829927641025337
16.2876,-0.080738316058444
16.2877,-0.0916884923065435
16.2878,-0.0952311964052387
16.2879,-0.0929767483413834
16.288,-0.100384220565048
16.2881,-0.0997400925440139
16.2882,-0.075907355976066
16.2883,-0.0578717718123029
16.2884,-0.0707543319062608
16.2885,-0.0736529079432407
16.2886,-0.0572276438105944
16.2887,-0.0997400925440139
16.2888,-0.0929767483413834
16.2889,-0.0610924118250928
16.289,-0.0752632279663237
16.2891,-0.111978524995808
16.2892,-0.113588845063507
16.2893,-0.0904002362728996
16.2894,-0.0511084278084056
16.2895,-0.0472436598200361
16.2896,-0.0591600278165685
16.2897,-0.043378891841661
16.2898,0.0297296339544528
16.2899,-0.00022231674211011
16.29,0.0361709136051128
16.2901,0.0361709136051128
16.2902,0.0303737619205964
16.2903,0.0509858567120142
16.2904,0.0548506244588379
16.2905,0.0670890556031637
16.2906,0.103804348562471
16.2907,0.092532109569511
16.2908,0.0963968772314141
16.2909,0.0796495506414288
16.291,0.086412894089316
16.2911,0.118297227175714
16.2912,0.0938203654576502
16.2913,0.117653099239502
16.2914,0.113144203680448
16.2915,0.122484058756281
16.2916,0.122484058756281
16.2917,0.0880232139543808
16.2918,0.111533883835554
16.2919,0.114754523524089
16.292,0.113466267649277
16.2921,0.0967189412028996
16.2922,0.0793274866671272
16.2923,0.0793274866671272
16.2924,0.0812598705121256
16.2925,0.0690214394606565
16.2926,0.0796495506414288
16.2927,0.0719200152431576
16.2928,0.0439004491545838
16.2929,0.0500196647740151
16.293,0.00267625915535027
16.2931,-0.00118850870907633
16.2932,-0.0240550520973597
16.2933,-0.0353272919185206
16.2934,-0.0720425879219723
16.2935,-0.108113756841195
16.2936,-0.0897561082565254
16.2937,-0.12808172576044
16.2938,-0.106825500792116
16.2939,-0.10972407690427
16.294,-0.127759661743225
16.2941,-0.145151118787042
16.2942,-0.127437597726089
16.2943,-0.159643999837468
16.2944,-0.18830769841286
16.2945,-0.167051472438979
16.2946,-0.165441152304461
16.2947,-0.159643999837468
16.2948,-0.127437597726089
16.2949,-0.115199165133141
16.295,-0.115843293161537
16.2951,-0.120352189369026
16.2952,-0.10714756480427
16.2953,-0.0833148281091267
16.2954,-0.0507863638089915
16.2955,-0.0552952598071621
16.2956,-0.0501422358103726
16.2957,-0.0507863638089915
16.2958,-0.0762294199810465
16.2959,-0.0794500600348664
16.296,-0.1155212291473
16.2961,-0.115843293161537
16.2962,-0.0881457882168934
16.2963,-0.110046140917116
16.2964,-0.120996317399916
16.2965,-0.0858913401645291
16.2966,-0.0968415164531043
16.2967,-0.0936208763592527
16.2968,-0.113266781049813
16.2969,-0.108435820853656
16.297,-0.0704322679025136
16.2971,-0.0627027318341506
16.2972,-0.0949091323958913
16.2973,-0.0900781722646753
16.2974,-0.046277467824508
16.2975,-0.0929767483413834
16.2976,-0.111012332956115
16.2977,-0.0932988123502806
16.2978,-0.0820265720831966
16.2979,-0.116809485204714
16.298,-0.143540798680541
16.2981,-0.0858913401645291
16.2982,-0.0701102038988386
16.2983,-0.0768735479912261
16.2984,-0.0610924118250928
16.2985,-0.0585158998142942
16.2986,-0.10424898869763
16.2987,-0.0797721240406508
16.2988,-0.0871795961940064
16.2989,-0.109402012891501
16.299,-0.0823486360895687
16.2991,-0.0704322679025136
16.2992,-0.0610924118250928
16.2993,-0.0878237242091901
16.2994,-0.0907223002811986
16.2995,-0.0768735479912261
16.2996,-0.0710763959100802
16.2997,-0.0688219478848598
16.2998,-0.0369376118997307
16.2999,-0.0627027318341506
16.3,-0.0514257089430124
16.3001,-0.0465947489580707
16.3002,-0.0375769570278143
16.3003,-0.00150578983331546
16.3004,0.00847819379977015
16.3005,0.00171485005497945
16.3006,-0.044984428966563
16.3007,-0.0433741089767838
16.3008,-0.0398314050053293
16.3009,-0.0169648613867694
16.301,-0.0353225090536433
16.3011,-0.0556125409426807
16.3012,-0.0694612930268277
16.3013,-0.0688171650199825
16.3014,-0.0804114691875623
16.3015,-0.0607655649586174
16.3016,-0.063986204977802
16.3017,-0.0694612930268277
16.3018,-0.0978029256178504
16.3019,-0.0929719654765061
16.302,-0.063986204977802
16.3021,-0.0662406529954785
16.3022,-0.0649523969849484
16.3023,-0.0942602215125446
16.3024,-0.14611252798704
16.3025,-0.138382991488441
16.3026,-0.11358406219863
16.3027,-0.124212174694192
16.3028,-0.0849203652783215
16.3029,-0.107142781939393
16.303,-0.0775128931368202
16.3031,-0.0849203652783215
16.3032,-0.0752584451014464
16.3033,-0.0588331809505186
16.3034,-0.092005773450264
16.3035,-0.072037805057095
16.3036,-0.0420858529862015
16.3037,-0.047560940953807
16.3038,-0.0234061412451823
16.3039,-0.0172869253790627
16.304,-0.0378990210243971
16.3041,-0.0578669889474256
16.3042,-0.0369328290348534
16.3043,-0.0800894051816312
16.3044,-0.0755805091062811
16.3045,-0.0887851333676457
16.3046,-0.0775128931368202
16.3047,-0.0652744609874735
16.3048,-0.0401534690023909
16.3049,-0.0388652130145554
16.305,-0.0407975969967198
16.3051,-0.041763788988728
16.3052,-0.0620538209654367
16.3053,-0.0704274850376363
16.3054,-0.0797673411757735
16.3055,-0.0433741089767838
16.3056,-0.0317798051009559
16.3057,-0.0188972453415171
16.3058,-0.0295253571353226
16.3059,-0.0807335331935667
16.306,-0.0643082689801127
16.3061,-0.0739701890828346
16.3062,-0.082665917231137
16.3063,-0.0704274850376363
16.3064,-0.0523919009418841
16.3065,-0.053036028941482
16.3066,-0.0552904769422848
16.3067,-0.0350004450576054
16.3068,-0.0549684129419593
16.3069,-0.0887851333676457
16.307,-0.0987691176481533
16.3071,-0.0749363810966844
16.3072,-0.0788011491586401
16.3073,-0.0562566689436837
16.3074,-0.055934604943147
16.3075,-0.0878189413443128
16.3076,-0.0546463489417041
16.3077,-0.0485271329501682
16.3078,-0.0395093410083362
16.3079,-0.0668847810011736
16.308,-0.044984428966563
16.3081,-0.0420858529862015
16.3082,-0.00762500563871354
16.3083,-0.0601214369556341
16.3084,-0.113906126212401
16.3085,-0.0868527493216485
16.3086,-0.0845983012713594
16.3087,-0.103278013798581
16.3088,-0.0862086213069099
16.3089,-0.087174813329129
16.309,-0.0626979489692733
16.3091,-0.081377661205796
16.3092,-0.100379437700171
16.3093,-0.103278013798581
16.3094,-0.118092958398495
16.3095,-0.101023565721508
16.3096,-0.0594773089529346
16.3097,-0.0569007969449687
16.3098,-0.0540022209414046
16.3099,-0.0372548930312998
16.31,-0.0775128931368202
16.3101,-0.0829879812376564
16.3102,-0.0617317569636251
16.3103,-0.0321018690963163
16.3104,-0.0211516932917261
16.3105,-0.00376023775892192
16.3106,0.00107072207782984
16.3107,-0.0188972453415171
16.3108,0.0281240969029181
16.3109,-0.00762500563871354
16.311,-0.0321018690963163
16.3111,-0.034034253069899
16.3112,-0.0684951010166679
16.3113,-0.0578669889474256
16.3114,-0.052713964941648
16.3115,-0.0659185889927385
16.3116,-0.0746143170919951
16.3117,-0.0626979489692733
16.3118,-0.0337121890741326
16.3119,-0.0288812291457477
16.312,-0.0678509730102545
16.3121,-0.0665627169982902
16.3122,-0.0462726849596307
16.3123,-0.034034253069899
16.3124,-0.0375769570278143
16.3125,-0.0498153889462905
16.3126,-0.0961926055688549
16.3127,-0.0804114691875623
16.3128,-0.0523919009418841
16.3129,-0.0517477729425663
16.313,-0.0688171650199825
16.3131,-0.095548477549784
16.3132,-0.0987691176481533
16.3133,-0.0874968773366838
16.3134,-0.0913616454331432
16.3135,-0.0907175174163213
16.3136,-0.0849203652783215
16.3137,-0.0997353096791366
16.3138,-0.121313598550601
16.3139,-0.11744883036901
16.314,-0.100701501710801
16.3141,-0.0823438532246914
16.3142,-0.108108973976317
16.3143,-0.0788011491586401
16.3144,-0.0974808616079005
16.3145,-0.127754878878348
16.3146,-0.11744883036901
16.3147,-0.108753102001317
16.3148,-0.0823438532246914
16.3149,-0.106176589903158
16.315,-0.109719294039393
16.3151,-0.103922141821286
16.3152,-0.106176589903158
16.3153,-0.105532461879384
16.3154,-0.113906126212401
16.3155,-0.0942602215125446
16.3156,-0.0968367335882269
16.3157,-0.0932940294854033
16.3158,-0.107786909963933
16.3159,-0.0978029256178504
16.316,-0.087174813329129
16.3161,-0.0668847810011736
16.3162,-0.105532461879384
16.3163,-0.10263388577618
16.3164,-0.122601854613634
16.3165,-0.113261998184935
16.3166,-0.116160574310974
16.3167,-0.0974808616079005
16.3168,-0.118092958398495
16.3169,-0.081377661205796
16.317,-0.092005773450264
16.3171,-0.1193812144584
16.3172,-0.0965146695785032
16.3173,-0.0749363810966844
16.3174,-0.0652744609874735
16.3175,-0.0507815809441142
16.3176,-0.0407975969967198
16.3177,-0.052713964941648
16.3178,-0.0436961729746016
16.3179,-0.0375769570278143
16.318,-0.0488491969490943
16.3181,-0.0540022209414046
16.3182,-0.0427299809813549
16.3183,-0.0288812291457477
16.3184,-0.0404755329995211
16.3185,-0.0597993729542489
16.3186,-0.0108456455456475
16.3187,-0.0282371011564416
16.3188,0.00815612981255285
16.3189,0.0358536324880237
16.319,0.0564657272157935
16.3191,0.0390742723050206
16.3192,0.0371418884155332
16.3193,0.0310226727513769
16.3194,0.0319888646997819
16.3195,0.0133091536005269
16.3196,0.00525755392476911
16.3197,-0.0211516932917261
16.3198,-0.0482050689513116
16.3199,-0.0433741089767838
16.32,-0.0385431490177677
16.3201,-0.0395093410083362
16.3202,-0.00859119761011324
16.3203,-0.0237282052387991
16.3204,0.00364723398490509
16.3205,-0.0282371011564416
16.3206,-0.0195413733269605
16.3207,0.00268104202022757
16.3208,-0.0333901250784339
16.3209,-0.021795821278096
16.321,-0.033068061082803
16.3211,-0.0295253571353226
16.3212,-0.0337121890741326
16.3213,-0.0327459970872398
16.3214,-0.053036028941482
16.3215,-0.0237282052387991
16.3216,-0.0259826531959826
16.3217,-0.0707495490413835
16.3218,-0.0717157410530586
16.3219,-0.0788011491586401
16.322,-0.0762246371161692
16.3221,-0.0697833570303585
16.3222,-0.101989757754083
16.3223,-0.0849203652783215
16.3224,-0.0913616454331432
16.3225,-0.0697833570303585
16.3226,-0.0569007969449687
16.3227,-0.0407975969967198
16.3228,-0.0569007969449687
16.3229,-0.0688171650199825
16.323,-0.0494933249471555
16.3231,-0.0288812291457477
16.3232,-0.0211516932917261
16.3233,-0.0633420769733949
16.3234,-0.0456285569629584
16.3235,-0.0469168129565801
16.3236,-0.0543242849415192
16.3237,-0.0414417249913232
16.3238,-0.0395093410083362
16.3239,-0.0430520449790349
16.324,-0.0391872770114116
16.3241,-0.0317798051009559
16.3242,-0.0845983012713594
16.3243,-0.0742922530873786
16.3244,-0.0910395814246949
16.3245,-0.0617317569636251
16.3246,-0.0507815809441142
16.3247,-0.0897513253916481
16.3248,-0.0723598690612037
16.3249,-0.053358092941386
16.325,-0.0581890529483859
16.3251,-0.0804114691875623
16.3252,-0.0601214369556341
16.3253,-0.0994132456687331
16.3254,-0.0543242849415192
16.3255,-0.0514257089430124
16.3256,-0.0436961729746016
16.3257,-0.0865306853142421
16.3258,-0.107786909963933
16.3259,-0.103922141821286
16.326,-0.0878189413443128
16.3261,-0.0874968773366838
16.3262,-0.111651678117623
16.3263,-0.127110750844154
16.3264,-0.105532461879384
16.3265,-0.130009327000517
16.3266,-0.0945822855217417
16.3267,-0.101989757754083
16.3268,-0.0862086213069099
16.3269,-0.0878189413443128
16.327,-0.072037805057095
16.3271,-0.0707495490413835
16.3272,-0.0694612930268277
16.3273,-0.0981249896278758
16.3274,-0.0784790851530754
16.3275,-0.0752584451014464
16.3276,-0.0762246371161692
16.3277,-0.0923278374589365
16.3278,-0.0662406529954785
16.3279,-0.105854525891233
16.328,-0.107464845951625
16.3281,-0.0842762372644711
16.3282,-0.0520698369421902
16.3283,-0.052713964941648
16.3284,-0.0688171650199825
16.3285,-0.0517477729425663
16.3286,-0.0378990210243971
16.3287,-0.0430520449790349
16.3288,-0.0617317569636251
16.3289,-0.077190829131548
16.329,-0.0775128931368202
16.3291,-0.0855644932924677
16.3292,-0.0839541732576568
16.3293,-0.0929719654765061
16.3294,-0.081377661205796
16.3295,-0.0903954534080223
16.3296,-0.095548477549784
16.3297,-0.103278013798581
16.3298,-0.0858865572996518
16.3299,-0.0807335331935667
16.33,-0.105210397867612
16.3301,-0.0746143170919951
16.3302,-0.130975519054065
16.3303,-0.112295806144316
16.3304,-0.0932940294854033
16.3305,-0.0903954534080223
16.3306,-0.0910395814246949
16.3307,-0.0704274850376363
16.3308,-0.116160574310974
16.3309,-0.0932940294854033
16.331,-0.107142781939393
16.3311,-0.103922141821286
16.3312,-0.0726819330653849
16.3313,-0.109075166013932
16.3314,-0.0681730370134253
16.3315,-0.0588331809505186
16.3316,-0.0903954534080223
16.3317,-0.123568046661733
16.3318,-0.110685486078161
16.3319,-0.117770894383714
16.332,-0.111973742130931
16.3321,-0.115194382268263
16.3322,-0.0990911816584054
16.3323,-0.113906126212401
16.3324,-0.092005773450264
16.3325,-0.0965146695785032
16.3326,-0.0936160934943754
16.3327,-0.115194382268263
16.3328,-0.089107197375572
16.3329,-0.108753102001317
16.333,-0.105532461879384
16.3331,-0.107786909963933
16.3332,-0.0903954534080223
16.3333,-0.0749363810966844
16.3334,-0.0701054210339613
16.3335,-0.057544924946536
16.3336,-0.0617317569636251
16.3337,-0.056578732944291
16.3338,-0.0945822855217417
16.3339,-0.092005773450264
16.334,-0.10649865391516
16.3341,-0.102311821765093
16.3342,-0.129687262982826
16.3343,-0.14224775973192
16.3344,-0.122601854613634
16.3345,-0.1193812144584
16.3346,-0.124212174694192
16.3347,-0.097158797598026
16.3348,-0.110685486078161
16.3349,-0.100701501710801
16.335,-0.100701501710801
16.3351,-0.101667693743149
16.3352,-0.0739701890828346
16.3353,-0.0391872770114116
16.3354,-0.0356445730497492
16.3355,-0.021795821278096
16.3356,-0.0430520449790349
16.3357,-0.0092353255913701
16.3358,-0.0221178852713804
16.3359,-0.0211516932917261
16.336,-0.01632073340238
16.3361,0.00557961791255248
16.3362,0.0187842413578276
16.3363,0.0203945612830564
16.3364,0.0249034570655636
16.3365,0.0319888646997819
16.3366,0.0574319191503569
16.3367,0.0844852931143553
16.3368,0.118302010040591
16.3369,0.110250410823611
16.337,0.118946137976605
16.3371,0.167899860557996
16.3372,0.147609830933676
16.3373,0.172086692045956
16.3374,0.163390965101196
16.3375,0.143745063365798
16.3376,0.169510180361923
16.3377,0.142778871472787
16.3378,0.123132969555893
16.3379,0.136981720105883
16.338,0.117335818136199
16.3381,0.126353609226639
16.3382,0.123455033523187
16.3383,0.0896383166829946
16.3384,0.0938251483225275
16.3385,0.0844852931143553
16.3386,0.0931810203785629
16.3387,0.0590422390401603
16.3388,0.00654580987552444
16.3389,-0.0169648613867694
16.339,-0.0114897735278134
16.3391,-0.00955738958209575
16.3392,-0.0684951010166679
16.3393,-0.121313598550601
16.3394,-0.133874095219005
16.3395,-0.193778004116898
16.3396,-0.213423910366705
16.3397,-0.221153447342573
16.3398,-0.253681916025816
16.3399,-0.223729959679398
16.34,-0.215034230565747
16.3401,-0.213423910366705
16.3402,-0.210203269975322
16.3403,-0.195710388323687
16.3404,-0.221153447342573
16.3405,-0.223085831594649
16.3406,-0.219221063093749
16.3407,-0.208915013821263
16.3408,-0.18314989103534
16.3409,-0.186370531353159
16.341,-0.171555585961918
16.3411,-0.164148113333474
16.3412,-0.16350398528092
16.3413,-0.153197936485213
16.3414,-0.14289188777363
16.3415,-0.115516446282423
16.3416,-0.139349183548224
16.3417,-0.136772671390411
16.3418,-0.125500430760054
16.3419,-0.105210397867612
16.342,-0.126466622810277
16.3421,-0.11358406219863
16.3422,-0.102955949787342
16.3423,-0.0839541732576568
16.3424,-0.0965146695785032
16.3425,-0.0491712609480901
16.3426,-0.0556125409426807
16.3427,-0.0485271329501682
16.3428,-0.047560940953807
16.3429,-0.0359666370459232
16.343,0.000426594100425857
16.3431,-0.047560940953807
16.3432,-0.0488491969490943
16.3433,-0.03081361311528
16.3434,-0.0398314050053293
16.3435,-0.0179310533638468
16.3436,-0.0597993729542489
16.3437,-0.0701054210339613
16.3438,-0.0675289090071557
16.3439,-0.0926499014676839
16.344,-0.126144558793457
16.3441,-0.0894292613835728
16.3442,-0.0903954534080223
16.3443,-0.0694612930268277
16.3444,-0.0665627169982902
16.3445,-0.0997353096791366
16.3446,-0.094904349531014
16.3447,-0.0620538209654367
16.3448,-0.0610876289602155
16.3449,-0.077190829131548
16.345,-0.088141005352016
16.3451,-0.0678509730102545
16.3452,-0.0569007969449687
16.3453,-0.0742922530873786
16.3454,-0.0472388769551588
16.3455,-0.0923278374589365
16.3456,-0.0395093410083362
16.3457,-0.0472388769551588
16.3458,-0.0446623649684691
16.3459,-0.0894292613835728
16.346,-0.089107197375572
16.3461,-0.116482638325367
16.3462,-0.0968367335882269
16.3463,-0.0887851333676457
16.3464,-0.0965146695785032
16.3465,-0.101989757754083
16.3466,-0.0778349571421655
16.3467,-0.094904349531014
16.3468,-0.0849203652783215
16.3469,-0.0794452771699891
16.347,-0.0878189413443128
16.3471,-0.0984470536379768
16.3472,-0.115516446282423
16.3473,-0.116482638325367
16.3474,-0.10134562973229
16.3475,-0.0903954534080223
16.3476,-0.0733260610739647
16.3477,-0.0556125409426807
16.3478,-0.0620538209654367
16.3479,-0.0424079169837438
16.348,-0.0459506209612599
16.3481,-0.033068061082803
16.3482,-0.0411196609939872
16.3483,-0.00343817376935735
16.3484,0.00332516999674259
16.3485,0.0310226727513769
16.3486,0.0352095045239127
16.3487,-0.00440436573824362
16.3488,0.017818049401953
16.3489,0.0297344168193301
16.349,0.0448714239607671
16.3491,0.0406845922113032
16.3492,0.0274799689359311
16.3493,0.0699924142535316
16.3494,0.0635511347240945
16.3495,0.0432611040582983
16.3496,0.0242593290973652
16.3497,0.0693482863015884
16.3498,0.0542112793664843
16.3499,0.0368198244337448
16.35,0.0844852931143553
16.3501,0.0110547056952545
16.3502,-0.0227620132581485
16.3503,0.0220048812067535
16.3504,0.0348874405417679
16.3505,0.0384301443420946
16.3506,-0.00343817376935735
16.3507,-0.0114897735278134
16.3508,-0.00633674967775206
16.3509,0.0294123528361682
16.351,0.0258696490174058
16.3511,0.0390742723050206
16.3512,0.0126650256279031
16.3513,0.0506685755976161
16.3514,0.0400404642489669
16.3515,0.0509906395768915
16.3516,0.0297344168193301
16.3517,0.0400404642489669
16.3518,0.0860956129810205
16.3519,0.118946137976605
16.352,0.0973678520105917
16.3521,0.095757532153164
16.3522,0.080298461454747
16.3523,0.128285993026754
16.3524,0.139558231826383
16.3525,0.133116952519456
16.3526,0.121522649718688
16.3527,0.11636962623136
16.3528,0.100266427750688
16.3529,0.147931894897367
16.353,0.134083144416704
16.3531,0.0851294210611818
16.3532,0.0548554073237152
16.3533,0.0268358409687025
16.3534,0.0203945612830564
16.3535,0.0168518574455243
16.3536,0.00461342594901305
16.3537,-0.0266267811843503
16.3538,-0.0359666370459232
16.3539,-0.0230840772516322
16.354,-0.0391872770114116
16.3541,-0.0098794535728863
16.3542,-0.006014685687673
16.3543,0.0451934879410857
16.3544,0.0397184002677104
16.3545,0.0435831680389089
16.3546,0.0471258718217748
16.3547,0.039396336286395
16.3548,0.046159679881692
16.3549,0.0458376159015481
16.355,0.0522788954934175
16.3551,0.0326329926650858
16.3552,0.0590422390401603
16.3553,0.0390742723050206
16.3554,0.0432611040582983
16.3555,0.039396336286395
16.3556,0.0123429616414979
16.3557,-0.0214737572848779
16.3558,-0.057544924946536
16.3559,-0.0730039970696385
16.356,-0.081377661205796
16.3561,-0.128721070930231
16.3562,-0.133874095219005
16.3563,-0.173487970133181
16.3564,-0.180895442817971
16.3565,-0.184438147161436
16.3566,-0.223729959679398
16.3567,-0.287176577853177
16.3568,-0.352233520247928
16.3569,-0.354487968822522
16.357,-0.367692596293101
16.3571,-0.368980852641367
16.3572,-0.396034236358345
16.3573,-0.397644556842241
16.3574,-0.404085838805761
16.3575,-0.451751326752878
16.3576,-0.43758050574738
16.3577,-0.388304698074316
16.3578,-0.395068044069345
16.3579,-0.371235301254996
16.358,-0.333231739610177
16.3581,-0.329689034785716
16.3582,-0.254648108179426
16.3583,-0.236934585497097
16.3584,-0.213101846327165
16.3585,-0.285888321609673
16.3586,-0.286854513792154
16.3587,-0.213745974406335
16.3588,-0.188624979580756
16.3589,-0.17381003416202
16.359,-0.195388324289005
16.3591,-0.200541348854423
16.3592,-0.194744196219901
16.3593,-0.197964836568913
16.3594,-0.162537793202714
16.3595,-0.150299360276632
16.3596,-0.122601854613634
16.3597,-0.110363422065161
16.3598,-0.0913616454331432
16.3599,-0.0862086213069099
16.36,-0.0623758849673194
16.3601,-0.0424079169837438
16.3602,-0.0153545414262885
16.3603,-0.00118372584419903
16.3604,0.0242593290973652
16.3605,0.038108080360543
16.3606,0.0265137769849975
16.3607,0.0100885137349169
16.3608,0.0120208976550305
16.3609,0.049702383659444
16.361,0.0345653765595637
16.3611,0.0310226727513769
16.3612,0.0242593290973652
16.3613,0.0207166252679182
16.3614,0.0216828172221364
16.3615,0.00783406582527281
16.3616,0.028446160886321
16.3617,0.0345653765595637
16.3618,0.0451934879410857
16.3619,0.0451934879410857
16.362,0.0748233738860752
16.3621,0.0145974095450293
16.3622,-0.00504849371782234
16.3623,0.0168518574455243
16.3624,0.0451934879410857
16.3625,0.0397184002677104
16.3626,0.0651614546085446
16.3627,0.0297344168193301
16.3628,0.0471258718217748
16.3629,0.0561436632374918
16.363,0.101554683633831
16.3631,0.0658055825619332
16.3632,0.0896383166829946
16.3633,0.0906045086006009
16.3634,0.105097387308231
16.3635,0.0819087813249038
16.3636,0.0770778217103739
16.3637,0.0619408148382424
16.3638,0.0535671514090246
16.3639,0.0712806701567545
16.364,0.0403625282301645
16.3641,0.0364977604518971
16.3642,0.0303785447854737
16.3643,-0.006014685687673
16.3644,-0.0205075653056214
16.3645,-0.0562566689436837
16.3646,-0.0765467011212225
16.3647,-0.122601854613634
16.3648,-0.138705055508288
16.3649,-0.148044912118985
16.365,-0.152875872461709
16.3651,-0.156740640749184
16.3652,-0.161893665150994
16.3653,-0.184438147161436
16.3654,-0.214068038446053
16.3655,-0.200541348854423
16.3656,-0.228882984370469
16.3657,-0.236934585497097
16.3658,-0.241443482153147
16.3659,-0.224052023721908
16.366,-0.205372309404924
16.3661,-0.207304693630688
16.3662,-0.20698262959284
16.3663,-0.190557363779208
16.3664,-0.162537793202714
16.3665,-0.177674802514707
16.3666,-0.176708610425389
16.3667,-0.140959503649471
16.3668,-0.122279790597759
16.3669,-0.111007550091238
16.367,-0.0849203652783215
16.3671,-0.0736481250783634
16.3672,-0.0643082689801127
16.3673,-0.0391872770114116
16.3674,-0.03081361311528
16.3675,-0.0713936770490946
16.3676,-0.111007550091238
16.3677,-0.11358406219863
16.3678,-0.104566269844296
16.3679,-0.0781570211475839
16.368,-0.0726819330653849
16.3681,-0.0478830049525245
16.3682,-0.0688171650199825
16.3683,-0.0643082689801127
16.3684,-0.0781570211475839
16.3685,-0.0939381575034225
16.3686,-0.0585111169494169
16.3687,-0.0378990210243971
16.3688,-0.0372548930312998
16.3689,-0.0321018690963163
16.369,-0.0610876289602155
16.3691,-0.0678509730102545
16.3692,-0.0205075653056214
16.3693,-0.0321018690963163
16.3694,-0.0221178852713804
16.3695,-0.041763788988728
16.3696,-0.0375769570278143
16.3697,-0.0230840772516322
16.3698,-0.00633674967775206
16.3699,-0.0350004450576054
16.37,-0.0430520449790349
16.3701,-0.0321018690963163
16.3702,-0.03081361311528
16.3703,-0.0829879812376564
16.3704,-0.0688171650199825
16.3705,-0.0636641409755628
16.3706,-0.0436961729746016
16.3707,-0.0569007969449687
16.3708,-0.0407975969967198
16.3709,-0.0523919009418841
16.371,-0.0156766054182534
16.3711,0.0059016819002728
16.3712,0.00429136196104028
16.3713,-0.0472388769551588
16.3714,-0.0633420769733949
16.3715,-0.0723598690612037
16.3716,-0.0250164612139322
16.3717,-0.0208296292986406
16.3718,0.0107326417085377
16.3719,-0.0269488451786346
16.372,-0.044984428966563
16.3721,-0.0485271329501682
16.3722,-0.0494933249471555
16.3723,-0.0073029416483763
16.3724,0.0509906395768915
16.3725,0.0313447367342385
16.3726,0.0635511347240945
16.3727,0.0638731987010965
16.3728,0.0709586061810316
16.3729,0.0757895658111022
16.373,0.0619408148382424
16.3731,0.0896383166829946
16.3732,0.108318027006866
16.3733,0.0667717744915976
16.3734,0.0745013099109567
16.3735,0.0513127035561093
16.3736,0.0439052320194611
16.3737,0.0735351179852728
16.3738,0.0371418884155332
16.3739,0.0310226727513769
16.374,0.0609746229060562
16.3741,0.0683820943732583
16.3742,0.0841632291408617
16.3743,0.109606282884898
16.3744,0.0996222998088073
16.3745,0.118946137976605
16.3746,0.13054044079136
16.3747,0.13054044079136
16.3748,0.142778871472787
16.3749,0.166611604714071
16.375,0.107995963037231
16.3751,0.136981720105883
16.3752,0.170798436204285
16.3753,0.136337592175286
16.3754,0.11411517845166
16.3755,0.0899603806555829
16.3756,0.115403434326073
16.3757,0.119268201944538
16.3758,0.129896312858856
16.3759,0.12925218492616
16.376,0.118302010040591
16.3761,0.134405208382359
16.3762,0.117335818136199
16.3763,0.0928589564065019
16.3764,0.0912486365454076
16.3765,0.109606282884898
16.3766,0.0690262223255338
16.3767,0.0403625282301645
16.3768,0.0361756964699901
16.3769,0.0194283693281032
16.377,0.0619408148382424
16.3771,0.0368198244337448
16.3772,0.045515551921346
16.3773,0.055177471302245
16.3774,0.0162077294742633
16.3775,0.0133091536005269
16.3776,0.0136312175867456
16.3777,0.0342433125772998
16.3778,0.0149194735309999
16.3779,0.0097664497480127
16.378,-0.000539597866157752
16.3781,0.00107072207782984
16.3782,0.000104530111628386
16.3783,-0.0224399492647312
16.3784,-0.052713964941648
16.3785,-0.0665627169982902
16.3786,-0.0762246371161692
16.3787,-0.0807335331935667
16.3788,-0.0465947489580707
16.3789,-0.03081361311528
16.379,-0.00891326160070927
16.3791,-0.0333901250784339
16.3792,-0.0672068450041287
16.3793,-0.0453064929647261
16.3794,-0.047560940953807
16.3795,-0.0585111169494169
16.3796,-0.0736481250783634
16.3797,-0.0810555971996446
16.3798,-0.092005773450264
16.3799,-0.118415022413354
16.38,-0.151587616368515
16.3801,-0.177674802514707
16.3802,-0.197320708498411
16.3803,-0.201829604999285
16.3804,-0.18314989103534
16.3805,-0.202473733072244
16.3806,-0.203439925182343
16.3807,-0.235002201221472
16.3808,-0.238866969776042
16.3809,-0.287820705975519
16.381,-0.299092948180451
16.3811,-0.286854513792154
16.3812,-0.326468394047064
16.3813,-0.32582426590057
16.3814,-0.327434586267576
16.3815,-0.325180137754489
16.3816,-0.273971951431356
16.3817,-0.238222841682691
16.3818,-0.229527112458492
16.3819,-0.24401999453619
16.382,-0.23532426526718
16.3821,-0.167368753601257
16.3822,-0.115194382268263
16.3823,-0.126466622810277
16.3824,-0.0974808616079005
16.3825,-0.0987691176481533
16.3826,-0.123245982645622
16.3827,-0.136772671390411
16.3828,-0.149333168208579
16.3829,-0.127110750844154
16.383,-0.113906126212401
16.3831,-0.10263388577618
16.3832,-0.109397230026624
16.3833,-0.100379437700171
16.3834,-0.0794452771699891
16.3835,-0.0865306853142421
16.3836,-0.102311821765093
16.3837,-0.0823438532246914
16.3838,-0.0746143170919951
16.3839,-0.088141005352016
16.384,-0.100701501710801
16.3841,-0.14031537560873
16.3842,-0.144180143858021
16.3843,-0.123890110677923
16.3844,-0.170911457905506
16.3845,-0.154164128556217
16.3846,-0.157062704773677
16.3847,-0.132907903163308
16.3848,-0.128399006912857
16.3849,-0.121957726581961
16.385,-0.111973742130931
16.3851,-0.0884630693597936
16.3852,-0.0810555971996446
16.3853,-0.0366107650384752
16.3854,-0.0446623649684691
16.3855,-0.0607655649586174
16.3856,-0.0501374529454953
16.3857,-0.109397230026624
16.3858,-0.118415022413354
16.3859,-0.10134562973229
16.386,-0.0936160934943754
16.3861,-0.0929719654765061
16.3862,-0.0614096929618848
16.3863,-0.0321018690963163
16.3864,-0.027592973167404
16.3865,-0.0601214369556341
16.3866,-0.0453064929647261
16.3867,-0.0552904769422848
16.3868,-0.0482050689513116
16.3869,-0.0601214369556341
16.387,-0.0707495490413835
16.3871,-0.029847421130211
16.3872,-0.0433741089767838
16.3873,-0.0453064929647261
16.3874,-0.0430520449790349
16.3875,-0.0311356771104378
16.3876,-0.026304717190133
16.3877,-0.0243723332262323
16.3878,-0.0359666370459232
16.3879,-0.0459506209612599
16.388,-0.0359666370459232
16.3881,-0.0562566689436837
16.3882,-0.0852424292853576
16.3883,-0.110041358052239
16.3884,-0.0659185889927385
16.3885,-0.0768687651263488
16.3886,-0.0540022209414046
16.3887,-0.0784790851530754
16.3888,-0.0965146695785032
16.3889,-0.108753102001317
16.389,-0.113906126212401
16.3891,-0.134196159237731
16.3892,-0.110363422065161
16.3893,-0.0852424292853576
16.3894,-0.0691392290233691
16.3895,-0.0923278374589365
16.3896,-0.0762246371161692
16.3897,-0.087174813329129
16.3898,-0.0923278374589365
16.3899,-0.0820217892183193
16.39,-0.0984470536379768
16.3901,-0.0736481250783634
16.3902,-0.0675289090071557
16.3903,-0.0794452771699891
16.3904,-0.0581890529483859
16.3905,-0.0350004450576054
16.3906,-0.0414417249913232
16.3907,-0.0272709091729858
16.3908,-0.0176089893714218
16.3909,-0.0285591651510611
16.391,-0.0333901250784339
16.3911,-0.0346783810616354
16.3912,-0.0285591651510611
16.3913,-0.0433741089767838
16.3914,-0.0327459970872398
16.3915,-0.0179310533638468
16.3916,-0.0478830049525245
16.3917,-0.0488491969490943
16.3918,-0.03081361311528
16.3919,-0.0198634373197814
16.392,-0.0317798051009559
16.3921,-0.0372548930312998
16.3922,0.00268104202022757
16.3923,-0.0240502692324824
16.3924,-0.0227620132581485
16.3925,-0.0230840772516322
16.3926,0.0116988336685008
16.3927,0.0120208976550305
16.3928,-0.0127780294929268
16.3929,-0.00633674967775206
16.393,-0.0211516932917261
16.3931,-0.0572228609457171
16.3932,-0.0391872770114116
16.3933,-0.00440436573824362
16.3934,-0.00311610977985691
16.3935,-0.0131000934843682
16.3936,-0.0230840772516322
16.3937,0.0110547056952545
16.3938,0.00364723398490509
16.3939,0.00493548993692264
16.394,0.0155636015027553
16.3941,-0.0185751813488944
16.3942,-0.0185751813488944
16.3943,-0.029847421130211
16.3944,0.00300310600851677
16.3945,-0.00214991781174006
16.3946,0.0390742723050206
16.3947,0.0184621773725976
16.3948,0.0342433125772998
16.3949,0.0268358409687025
16.395,0.0249034570655636
16.3951,0.0442272959999548
16.3952,-0.00633674967775206
16.3953,-0.03081361311528
16.3954,-0.00569262169765838
16.3955,0.0155636015027553
16.3956,-0.00826913361958197
16.3957,-0.00279404579042058
16.3958,-0.00472642972800084
16.3959,0.0216828172221364
16.396,0.0355315685059979
16.3961,0.0345653765595637
16.3962,0.028446160886321
16.3963,0.0265137769849975
16.3964,-0.000539597866157752
16.3965,0.0194283693281032
16.3966,0.0303785447854737
16.3967,0.0316668007170402
16.3968,-0.01632073340238
16.3969,0.0155636015027553
16.397,-0.000539597866157752
16.3971,0.00171485005497945
16.3972,-0.0185751813488944
16.3973,-0.044984428966563
16.3974,-0.0266267811843503
16.3975,-0.0536801569413603
16.3976,-0.0337121890741326
16.3977,-0.0433741089767838
16.3978,-0.0443403009704442
16.3979,-0.0649523969849484
16.398,-0.0717157410530586
16.3981,-0.0514257089430124
16.3982,-0.0372548930312998
16.3983,-0.0292032931405016
16.3984,-0.0362887010421652
16.3985,-0.0179310533638468
16.3986,-0.0279150371618893
16.3987,-0.0333901250784339
16.3988,-0.0520698369421902
16.3989,-0.0900733893997979
16.399,-0.087174813329129
16.3991,-0.110363422065161
16.3992,-0.0436961729746016
16.3993,-0.0746143170919951
16.3994,-0.0407975969967198
16.3995,-0.0594773089529346
16.3996,-0.063986204977802
16.3997,-0.0630200129712985
16.3998,-0.0482050689513116
16.3999,-0.0923278374589365
16.4,-0.0648195364924438
16.4001,-0.0622430244753856
16.4002,-0.0506487204547188
16.4003,-0.102178961264032
16.4004,-0.0822109927282683
16.4005,-0.0902625929097469
16.4006,-0.103789281319844
16.4007,-0.0812448007095936
16.4008,-0.0857536968024167
16.4009,-0.1144173937362
16.401,-0.124401378204141
16.4011,-0.139860451078261
16.4012,-0.0979921291277994
16.4013,-0.0628871524792223
16.4014,-0.0822109927282683
16.4015,-0.05676793645424
16.4016,-0.0696504965367767
16.4017,-0.0741593925927836
16.4018,-0.0335793285883829
16.4019,-0.0706166885475853
16.402,-0.0915508489430922
16.4021,-0.125367570253419
16.4022,-0.114739457750126
16.4023,-0.0979921291277994
16.4024,-0.0551576164519083
16.4025,-0.0500045924562395
16.4026,-0.087364016839078
16.4027,-0.12891027444018
16.4028,-0.104111345331235
16.4029,-0.105077537365865
16.403,-0.116671841835316
16.4031,-0.10346721730853
16.4032,-0.120536610014098
16.4033,-0.111196753601187
16.4034,-0.113129137681267
16.4035,-0.102178961264032
16.4036,-0.0876860808466328
16.4037,-0.0867198888241911
16.4038,-0.0925170409688855
16.4039,-0.107654049461574
16.404,-0.121180738044988
16.4041,-0.0699725605403075
16.4042,-0.0960597450692308
16.4043,-0.077380032641497
16.4044,-0.0448515684784181
16.4045,-0.0474280804651078
16.4046,-0.089296400885521
16.4047,-0.0979921291277994
16.4048,-0.106043729401182
16.4049,-0.115383585778212
16.405,-0.116027713806609
16.4051,-0.0731932005795875
16.4052,-0.0374440965412488
16.4053,-0.0274601126829348
16.4054,-0.0487163364601172
16.4055,-0.031002816625229
16.4056,-0.0232732807615811
16.4057,-0.0351896485675544
16.4058,-0.0638533444855118
16.4059,-0.0680401765202035
16.406,-0.0693284325333181
16.4061,-0.0661077925026875
16.4062,-0.034223456579848
16.4063,-0.0190864488514661
16.4064,-0.0474280804651078
16.4065,-0.0203747048226173
16.4066,-0.0177981928813708
16.4067,-0.0045935692481926
16.4068,-0.00749214515832528
16.4069,0.0240701255874162
16.407,-0.0255277287178312
16.4071,-0.0168320009044908
16.4072,-0.0139334249773959
16.4073,-0.0345455205756823
16.4074,-0.0033053132898059
16.4075,-0.00910246511065826
16.4076,-0.0187643848588433
16.4077,-0.0319690086109049
16.4078,-0.00427150525849965
16.4079,-0.0245615367361813
16.408,-0.0322910726062653
16.4081,-0.0107127850646111
16.4082,-0.0168320009044908
16.4083,-0.0026611853109973
16.4084,-0.00781420914866252
16.4085,-0.00910246511065826
16.4086,-0.00910246511065826
16.4087,-0.0274601126829348
16.4088,-0.0306807526301386
16.4089,-0.00910246511065826
16.409,0.0118316941450815
16.4091,0.0124758221179541
16.4092,-0.0306807526301386
16.4093,-0.0628871524792223
16.4094,-0.0587003204593659
16.4095,-0.0538693604513092
16.4096,-0.0461398244712089
16.4097,-0.0644974724900617
16.4098,-0.0593444484616402
16.4099,-0.0841433767676057
16.41,-0.0509707844540632
16.4101,-0.0261718567059315
16.4102,-0.0319690086109049
16.4103,-0.0525811044518331
16.4104,-0.052903168451597
16.4105,-0.0979921291277994
16.4106,-0.0706166885475853
16.4107,-0.0471060164665291
16.4108,-0.0429191844913039
16.4109,-0.0442074404824374
16.411,-0.053225232451431
16.4111,-0.0242394727424314
16.4112,-0.0831771847476054
16.4113,-0.0851095687882705
16.4114,-0.103145153297291
16.4115,-0.0722270085670439
16.4116,-0.102501025275042
16.4117,-0.0928391049776329
16.4118,-0.0976700651178495
16.4119,-0.105399601377561
16.412,-0.106687857425109
16.4121,-0.103789281319844
16.4122,-0.0844654407744201
16.4123,-0.0960597450692308
16.4124,-0.095093553040963
16.4125,-0.0847875047813084
16.4126,-0.081566864715745
16.4127,-0.0863978248168589
16.4128,-0.0831771847476054
16.4129,-0.0780241606521145
16.413,-0.0777020966467692
16.4131,-0.0789903526685891
16.4132,-0.0847875047813084
16.4133,-0.104111345331235
16.4134,-0.113129137681267
16.4135,-0.103789281319844
16.4136,-0.0976700651178495
16.4137,-0.0812448007095936
16.4138,-0.092194976960213
16.4139,-0.0680401765202035
16.414,-0.0777020966467692
16.4141,-0.0722270085670439
16.4142,-0.0844654407744201
16.4143,-0.0899405289015971
16.4144,-0.087364016839078
16.4145,-0.119248353953256
16.4146,-0.0622430244753856
16.4147,-0.0377661605377633
16.4148,0.000881518567880858
16.4149,-0.045173632476512
16.415,-0.0735152645839137
16.4151,-0.056123808453096
16.4152,-0.027782176677353
16.4153,-0.0651416004948974
16.4154,-0.0857536968024167
16.4155,-0.0799565446857225
16.4156,-0.0986362571479258
16.4157,-0.12021454599877
16.4158,-0.116993905849786
16.4159,-0.130842658546085
16.416,-0.126011698286665
16.4161,-0.123757250171682
16.4162,-0.115705649792372
16.4163,-0.10346721730853
16.4164,-0.108298177486266
16.4165,-0.11087468958811
16.4166,-0.102501025275042
16.4167,-0.117315969864333
16.4168,-0.121824866076191
16.4169,-0.133097106673257
16.417,-0.104433409342702
16.4171,-0.0915508489430922
16.4172,-0.095737681059733
16.4173,-0.0925170409688855
16.4174,-0.0558017444526297
16.4175,-0.0812448007095936
16.4176,-0.116671841835316
16.4177,-0.0880081448542618
16.4178,-0.0889743368775947
16.4179,-0.0822109927282683
16.418,-0.0483942724612606
16.4181,-0.0458177604729074
16.4182,0.00249183851027859
16.4183,-0.00910246511065826
16.4184,0.00828899028982116
16.4185,0.0134420140767966
16.4186,0.0115096301585519
16.4187,0.0317996611898329
16.4188,0.057242715640408
16.4189,0.0756003623011532
16.419,0.0717355945980859
16.4191,0.0910594330354586
16.4192,0.057242715640408
16.4193,0.0363085569419482
16.4194,0.0198832937881843
16.4195,0.0314775972070912
16.4196,0.0327658531376991
16.4197,0.0720576585736435
16.4198,0.0907373690630816
16.4199,0.0768886182004249
16.42,0.107806759527282
16.4201,0.171897488536007
16.4202,0.16545620932072
16.4203,0.149675075168595
16.4204,0.160947313859614
16.4205,0.198950861055899
16.4206,0.19573022148536
16.4207,0.226326297248819
16.4208,0.23308964026673
16.4209,0.237920599555589
16.421,0.243717750691811
16.4211,0.201527372709464
16.4212,0.210223099521719
16.4213,0.197340541271129
16.4214,0.16545620932072
16.4215,0.145166179676607
16.4216,0.134538068838016
16.4217,0.133893940906755
16.4218,0.126808533650255
16.4219,0.0675487629108118
16.422,0.061107483373559
16.4221,0.0524117559624564
16.4222,0.0205274217579692
16.4223,0.009255182251097
16.4224,0.0214936137121874
16.4225,0.009255182251097
16.4226,0.0111875661719598
16.4227,-0.0100686570828353
16.4228,-0.0799565446857225
16.4229,-0.095093553040963
16.423,-0.133419170691743
16.4231,-0.154353332066166
16.4232,-0.166591765029992
16.4233,-0.158218100357598
16.4234,-0.177541941994799
16.4235,-0.207815961178575
16.4236,-0.192678951490729
16.4237,-0.234225212594851
16.4238,-0.212968985797664
16.4239,-0.222952971062359
16.424,-0.231970764279402
16.4241,-0.245497454239893
16.4242,-0.278347987691477
16.4243,-0.287687845424248
16.4244,-0.330200302370099
16.4245,-0.350490339269505
16.4246,-0.33921809649636
16.4247,-0.366915607542984
16.4248,-0.348557954784945
16.4249,-0.351778595594662
16.425,-0.327623789777525
16.4251,-0.318605995755357
16.4252,-0.319894252039321
16.4253,-0.303146920474409
16.4254,-0.31023232994927
16.4255,-0.331166494594019
16.4256,-0.298960087625715
16.4257,-0.280602436102213
16.4258,-0.257735888155306
16.4259,-0.254837311689375
16.426,-0.183339094545289
16.4261,-0.170134469331469
16.4262,-0.151132691832359
16.4263,-0.117638033878959
16.4264,-0.082855120741086
16.4265,-0.0564458724536327
16.4266,-0.0677181125171047
16.4267,-0.0760917766211377
16.4268,-0.0103907210736907
16.4269,0.0179509098773571
16.427,0.0137640780629532
16.4271,0.0775327461497339
16.4272,0.100399288211602
16.4273,0.08687260139043
16.4274,0.0920256249522731
16.4275,0.0759224262760529
16.4276,0.0855843454978454
16.4277,0.0842960896044063
16.4278,0.0839740256309127
16.4279,0.072379722549146
16.428,0.0646501871218175
16.4281,0.0807533858930226
16.4282,0.0614295473509544
16.4283,0.0369526849055842
16.4284,-0.0123231050201887
16.4285,0.0118316941450815
16.4286,0.00796692630260386
16.4287,-0.012001041028943
16.4288,-0.026493920700082
16.4289,-0.0403426725123399
16.429,-0.0731932005795875
16.4291,-0.104755473354245
16.4292,-0.1575739723082
16.4293,-0.16498144489631
16.4294,-0.140504579118679
16.4295,-0.154031268042416
16.4296,-0.166269701003089
16.4297,-0.151132691832359
16.4298,-0.177864006024656
16.4299,-0.155963652186152
16.43,-0.14018251509843
16.4301,-0.12150280206055
16.4302,-0.127944082388297
16.4303,-0.152743011948237
16.4304,-0.136639810880995
16.4305,-0.123435186155571
16.4306,-0.109908497549342
16.4307,-0.14791205160674
16.4308,-0.137928066958938
16.4309,-0.156929844259133
16.431,-0.128266146405512
16.4311,-0.121824866076191
16.4312,-0.107976113473882
16.4313,-0.125045506236914
16.4314,-0.101856897253098
16.4315,-0.131164722564014
16.4316,-0.143081091283579
16.4317,-0.165947636976269
16.4318,-0.158218100357598
16.4319,-0.199442296220915
16.432,-0.199764360256648
16.4321,-0.242920941853874
16.4322,-0.274483218998429
16.4323,-0.277059731458909
16.4324,-0.305723433005091
16.4325,-0.323114892756389
16.4326,-0.312808842497684
16.4327,-0.328267917925049
16.4328,-0.343082865432647
16.4329,-0.375933402008149
16.433,-0.413614901242708
16.4331,-0.35596542866315
16.4332,-0.349846211107562
16.4333,-0.340184288729018
16.4334,-0.317639803543455
16.4335,-0.302824856408525
16.4336,-0.237767917099658
16.4337,-0.212646921758302
16.4338,-0.192678951490729
16.4339,-0.188170055025246
16.434,-0.165303508922879
16.4341,-0.153709204018748
16.4342,-0.116349777820923
16.4343,-0.089296400885521
16.4344,-0.0496825284571045
16.4345,-0.0664298565054275
16.4346,-0.0274601126829348
16.4347,-0.0139334249773959
16.4348,0.00442422243906406
16.4349,0.0089331182640677
16.435,0.0276128294095058
16.4351,0.034698237031819
16.4352,0.0556323957491843
16.4353,0.0466146043318563
16.4354,0.0375968128689833
16.4355,0.0127978861042971
16.4356,0.0115096301585519
16.4357,-0.0045935692481926
16.4358,-0.00717008116805264
16.4359,0.0147302700210509
16.436,0.00120358255648744
16.4361,-0.012001041028943
16.4362,0.00184771053350998
16.4363,0.0105434381985887
16.4364,-0.0190864488514661
16.4365,0.00828899028982116
16.4366,0.0205274217579692
16.4367,0.026002509491283
16.4368,-0.00910246511065826
16.4369,0.0182729738626486
16.437,0.0269687014423981
16.4371,-0.0145775529607362
16.4372,-0.00362737727930634
16.4373,0.00249183851027859
16.4374,0.00989931022496788
16.4375,0.0247142535556146
16.4376,-0.000728801376106737
16.4377,-0.0107127850646111
16.4378,0.00120358255648744
16.4379,0.00603454237798113
16.438,0.0305114052585063
16.4381,0.0488690521904249
16.4382,0.0630398672370874
16.4383,0.0540220758565353
16.4384,0.0698032107435826
16.4385,0.0575647796184821
16.4386,0.0588530355302113
16.4387,0.0411395166634552
16.4388,0.0343761730496147
16.4389,0.0543441398351794
16.439,0.0424277725869524
16.4391,0.0430719005483493
16.4392,0.0562765237058445
16.4393,0.0450042844311367
16.4394,0.0688370188155848
16.4395,0.0404953887013542
16.4396,0.0182729738626486
