18.1,-0.108186360842376
18.1001,-0.118170345266951
18.1002,-0.125577817630313
18.1003,-0.136527994244008
18.1004,-0.178396317458388
18.1005,-0.172921228958022
18.1006,-0.153275323362396
18.1007,-0.117204153222607
18.1008,-0.102711272640939
18.1009,-0.0170422482326594
18.101,0.0367424375983004
18.1011,0.0712032833274349
18.1012,0.127242414306607
18.1013,0.157516426970963
18.1014,0.258322445190268
18.1015,0.320480787021593
18.1016,0.33207508901261
18.1017,0.358484332324292
18.1018,0.353653373192907
18.1019,0.366213866924909
18.102,0.394233429760953
18.1021,0.407760115222199
18.1022,0.395521685520362
18.1023,0.346890030400921
18.1024,0.295681863206645
18.1025,0.28569788084535
18.1026,0.269916747377511
18.1027,0.24093099182943
18.1028,0.218064451144172
18.1029,0.155906107158644
18.103,0.0847299702607586
18.1031,0.0741018591069589
18.1032,0.0586427882308124
18.1033,0.0753901150075421
18.1034,0.101477296809526
18.1035,0.208080468532949
18.1036,0.306954101324001
18.1037,0.39487755764069
18.1038,0.50083659320255
18.1039,0.609372139885683
18.104,0.754300913370696
18.1041,0.909857803087602
18.1042,1.06412644750589
18.1043,1.19134172885943
18.1044,1.24899118941667
18.1045,1.35237374867745
18.1046,1.36912108007533
18.1047,1.42258371677555
18.1048,1.42838087032734
18.1049,1.39939510291406
18.105,1.39327588545829
18.1051,1.36847695193963
18.1052,1.27862108082317
18.1053,1.2093773140007
18.1054,1.14464244704695
18.1055,1.07926345509478
18.1056,0.995204755111981
18.1057,0.912112250832488
18.1058,0.794880970773904
18.1059,0.688921932866786
18.106,0.638679958253629
18.1061,0.498582145646245
18.1062,0.370722762103327
18.1063,0.239642736020965
18.1064,0.0908491857470042
18.1065,-0.0479603918049083
18.1066,-0.176785997308674
18.1067,-0.314951474396231
18.1068,-0.423487071926919
18.1069,-0.594825193639652
18.107,-0.686613488510036
18.1071,-0.793216751217208
18.1072,-0.903040674554376
18.1073,-0.964877027208221
18.1074,-1.02059416313372
18.1075,-1.11045013407487
18.1076,-1.17969399308512
18.1077,-1.22896986131087
18.1078,-1.31689348171544
18.1079,-1.39000214568842
18.108,-1.46504320963681
18.1081,-1.53042234462438
18.1082,-1.57776586252454
18.1083,-1.61480331231434
18.1084,-1.65924825657128
18.1085,-1.67438530394353
18.1086,-1.68533550879049
18.1087,-1.64443327460008
18.1088,-1.6280079691484
18.1089,-1.61448124751894
18.109,-1.58936019426933
18.1091,-1.57164663201405
18.1092,-1.51882801453121
18.1093,-1.5191500792517
18.1094,-1.52687963261747
18.1095,-1.5065895553349
18.1096,-1.49113044948706
18.1097,-1.49628348470722
18.1098,-1.44732965261262
18.1099,-1.42220860933782
18.11,-1.39418898583141
18.1101,-1.42124241539437
18.1102,-1.3877476933199
18.1103,-1.34684548801235
18.1104,-1.32558922527973
18.1105,-1.26407489462868
18.1106,-1.19772960441883
18.1107,-1.18484702482864
18.1108,-1.13492703201168
18.1109,-1.08951594595491
18.111,-1.03734151143034
18.1111,-0.987099468048102
18.1112,-0.936535364768889
18.1113,-0.887581587394556
18.1114,-0.837339556816326
18.1115,-0.799658036517526
18.1116,-0.732668672463935
18.1117,-0.694343029660862
18.1118,-0.660848351946416
18.1119,-0.642168628512212
18.112,-0.588061846042266
18.1121,-0.563907033676128
18.1122,-0.511732641469791
18.1123,-0.523649014702673
18.1124,-0.510444384914385
18.1125,-0.490798472691099
18.1126,-0.504647230439801
18.1127,-0.524293142990457
18.1128,-0.484679254223483
18.1129,-0.500782460812495
18.113,-0.476305586918095
18.1131,-0.461490637270133
18.1132,-0.442810918508033
18.1133,-0.435725508046486
18.1134,-0.388704149115812
18.1135,-0.344259305170872
18.1136,-0.294339374137511
18.1137,-0.289830477260411
18.1138,-0.232503075757692
18.1139,-0.208026208598364
18.114,-0.226383858918857
18.1141,-0.20867033667486
18.1142,-0.209958592828919
18.1143,-0.183227277920332
18.1144,-0.188380302434352
18.1145,-0.151342939222112
18.1146,-0.151987067268545
18.1147,-0.161971052030409
18.1148,-0.140392762482657
18.1149,-0.107864296829914
18.115,-0.117848281252092
18.1151,-0.0843536241249561
18.1152,-0.111084936957988
18.1153,-0.0885404562212424
18.1154,-0.108830488867529
18.1155,-0.0656739118463352
18.1156,-0.053435479794957
18.1157,-0.067928359867022
18.1158,-0.0337895759234957
18.1159,-0.00866858445430597
18.116,0.0344879897237031
18.1161,0.0763563069324052
18.1162,0.154617851307979
18.1163,0.18167122402404
18.1164,0.323379362522338
18.1165,0.464765432272016
18.1166,0.654461091263976
18.1167,0.829663877519243
18.1168,1.02934353698179
18.1169,1.18876521671691
18.117,1.32532036775128
18.1171,1.50084529275214
18.1172,1.60197343002762
18.1173,1.69859268132294
18.1174,1.79231336715779
18.1175,1.80294148696398
18.1176,1.81002690026067
18.1177,1.80358561544243
18.1178,1.79714433068548
18.1179,1.7691247426982
18.118,1.75108914643128
18.1181,1.72693433072278
18.1182,1.68087915100254
18.1183,1.6367563591023
18.1184,1.55237555226996
18.1185,1.4486709080358
18.1186,1.41710862734193
18.1187,1.3079289089424
18.1188,1.20776699388848
18.1189,1.13304814284244
18.119,1.01549478576716
18.1191,0.915332890471951
18.1192,0.815493063612035
18.1193,0.745605186842673
18.1194,0.668309840669872
18.1195,0.590692431518456
18.1196,0.485377524240879
18.1197,0.347212094343614
18.1198,0.324023490411119
18.1199,0.235777968592207
18.12,0.125954158439282
18.1201,0.0618634280073067
18.1202,-0.0167201842403661
18.1203,-0.0917610963038607
18.1204,-0.189346494533189
18.1205,-0.256657879394751
18.1206,-0.28210093980172
18.1207,-0.343615177012726
18.1208,-0.442166790281922
18.1209,-0.471152560924727
18.121,-0.482424805325482
18.1211,-0.496917691203043
18.1212,-0.553278916470483
18.1213,-0.624777162293121
18.1214,-0.686613488510036
18.1215,-0.713022754459966
18.1216,-0.764553032398535
18.1217,-0.805777257612084
18.1218,-0.81833776425136
18.1219,-0.839916071106327
18.122,-0.809319964588061
18.1221,-0.770994317417906
18.1222,-0.707547662656732
18.1223,-0.623810969737326
18.1224,-0.541684606953394
18.1225,-0.405451482157246
18.1226,-0.250216598373499
18.1227,-0.0833874321045129
18.1228,0.0853740982075851
18.1229,0.215810003460959
18.123,0.373621337573178
18.1231,0.524025196631254
18.1232,0.705669257833978
18.1233,0.828697685659753
18.1234,0.918875594080715
18.1235,1.03127592088096
18.1236,1.11114779071122
18.1237,1.21485240239756
18.1238,1.27185773597955
18.1239,1.35172962055214
18.124,1.37781680994693
18.1241,1.37105346448485
18.1242,1.36718869566944
18.1243,1.33659260972049
18.1244,1.2782990167821
18.1245,1.21453033837356
18.1246,1.16622073568408
18.1247,1.13916735893855
18.1248,1.09955348677339
18.1249,1.04351435229315
18.125,0.995204755111981
18.1251,0.993594435228354
18.1252,1.00808731423177
18.1253,0.988763475585819
18.1254,0.961065973870991
18.1255,0.958811526074205
18.1256,0.932724344606133
18.1257,0.896975244587951
18.1258,0.867667424260465
18.1259,0.841258179858723
18.126,0.780710157024018
18.1261,0.7752350699092
18.1262,0.71629736793861
18.1263,0.64157853370202
18.1264,0.526601708122839
18.1265,0.430948718811305
18.1266,0.405827731586533
18.1267,0.281833113472169
18.1268,0.178128520471394
18.1269,0.036098309634427
18.127,-0.0830653680978461
18.1271,-0.208348272636567
18.1272,-0.292406989759238
18.1273,-0.439268213270206
18.1274,-0.592892808605754
18.1275,-0.75295871952043
18.1276,-0.85054419266428
18.1277,-0.967131477688974
18.1278,-1.06310666365332
18.1279,-1.13524909646589
18.128,-1.18645734725931
18.1281,-1.26310870101704
18.1282,-1.29467102667406
18.1283,-1.33267464608202
18.1284,-1.38645943482869
18.1285,-1.47438308545056
18.1286,-1.62349906188784
18.1287,-1.66279096973377
18.1288,-1.66568955325409
18.1289,-1.67309704456995
18.129,-1.66762194227952
18.1291,-1.70530353018791
18.1292,-1.709168308642
18.1293,-1.66762194227952
18.1294,-1.60514136856435
18.1295,-1.53782983346307
18.1296,-1.46568733899679
18.1297,-1.42124241539437
18.1298,-1.3349290981782
18.1299,-1.25859979752171
18.13,-1.16938792975587
18.1301,-1.08790562382606
18.1302,-1.01737351928851
18.1303,-0.926229306040142
18.1304,-0.907227510728332
18.1305,-0.914312925858555
18.1306,-0.89080223052031
18.1307,-0.886937458771453
18.1308,-0.902396545914817
18.1309,-0.911736411256039
18.131,-0.957469547119141
18.1311,-0.973250700466969
18.1312,-0.957469547119141
18.1313,-0.941688394200926
18.1314,-0.973250700466969
18.1315,-0.974538957902225
18.1316,-0.947485552366147
18.1317,-0.944264908933929
18.1318,-0.936535364768889
18.1319,-0.943942844591684
18.132,-0.931382335382014
18.1321,-0.913990861532633
18.1322,-0.897565581140071
18.1323,-0.901752417275947
18.1324,-0.915279118837364
18.1325,-0.905295124798265
18.1326,-0.949095874088918
18.1327,-0.932026464052909
18.1328,-0.939433943818842
18.1329,-0.912702604230681
18.133,-0.867613600393992
18.1331,-0.864715021689779
18.1332,-0.856663414249293
18.1333,-0.798047715186461
18.1334,-0.754246976496976
18.1335,-0.744262984993207
18.1336,-0.725261195117849
18.1337,-0.706903534212125
18.1338,-0.683392846388768
18.1339,-0.671154406460738
18.134,-0.607385696479091
18.1341,-0.583552947676983
18.1342,-0.558431942976624
18.1343,-0.538141901301024
18.1344,-0.496917691203043
18.1345,-0.490476408560122
18.1346,-0.512054705608956
18.1347,-0.54297286355812
18.1348,-0.595791386158427
18.1349,-0.585485332687455
18.135,-0.62252271299821
18.1351,-0.637659729823583
18.1352,-0.655373260545427
18.1353,-0.681460461123016
18.1354,-0.655695324744342
18.1355,-0.649898169185646
18.1356,-0.635405280489599
18.1357,-0.640236243356565
18.1358,-0.615759365154187
18.1359,-0.569382124413661
18.136,-0.545227312621362
18.1361,-0.505613422849425
18.1362,-0.463423021992431
18.1363,-0.402552905263069
18.1364,-0.407705930859017
18.1365,-0.41028244366781
18.1366,-0.356175676172776
18.1367,-0.333309126539346
18.1368,-0.302390975752173
18.1369,-0.256335815342792
18.137,-0.207382080522223
18.1371,-0.180972829702364
18.1372,-0.135883866205358
18.1373,-0.127510201731944
18.1374,-0.0666401038547703
18.1375,-0.0122112883551474
18.1376,-0.00383762460214737
18.1377,0.0193509824893994
18.1378,0.0299790939657334
18.1379,0.0895609298567566
18.138,0.131751309836158
18.1381,0.151075147714919
18.1382,0.196486166098947
18.1383,0.220640962779878
18.1384,0.246406079009229
18.1385,0.238032416259597
18.1386,0.305987909486681
18.1387,0.324345554355471
18.1388,0.34141494337174
18.1389,0.317582211518806
18.139,0.28569788084535
18.1391,0.265407852087389
18.1392,0.29729218293977
18.1393,0.322735234633459
18.1394,0.291817095844258
18.1395,0.30856442105233
18.1396,0.333685408731103
18.1397,0.366213866924909
18.1398,0.359772588091872
18.1399,0.340448751542386
18.14,0.33175302506884
18.1401,0.329176513517819
18.1402,0.38457151155688
18.1403,0.381995000033179
18.1404,0.357196076556382
18.1405,0.350110669826865
18.1406,0.371044826044498
18.1407,0.31468363601395
18.1408,0.294715671366431
18.1409,0.329176513517819
18.141,0.325633810132636
18.1411,0.30502171764912
18.1412,0.295681863206645
18.1413,0.307920293161078
18.1414,0.299546630564972
18.1415,0.307598229215412
18.1416,0.353975437135146
18.1417,0.315327763904098
18.1418,0.288596456372455
18.1419,0.27378151476416
18.142,0.280222793732079
18.1421,0.283443433211513
18.1422,0.27378151476416
18.1423,0.281188985576223
18.1424,0.280222793732079
18.1425,0.296970118993201
18.1426,0.29085090400302
18.1427,0.306632037378254
18.1428,0.309852676834514
18.1429,0.30502171764912
18.143,0.308242357106717
18.1431,0.327566193797646
18.1432,0.313395380233342
18.1433,0.328532385629822
18.1434,0.324023490411119
18.1435,0.322735234633459
18.1436,0.313073316288125
18.1437,0.306954101324001
18.1438,0.307920293161078
18.1439,0.306309973432481
18.144,0.286986136635466
18.1441,0.292139159791281
18.1442,0.277002154249641
18.1443,0.243829567396446
18.1444,0.300190758457637
18.1445,0.323057298577911
18.1446,0.308886484997916
18.1447,0.339804623656036
18.1448,0.311462996561648
18.1449,0.296970118993201
18.145,0.327888257741729
18.1451,0.305665845540854
18.1452,0.285375816897747
18.1453,0.267984363682502
18.1454,0.265407852087389
18.1455,0.265085788137857
18.1456,0.254135613834561
18.1457,0.268306427631748
18.1458,0.266696107885199
18.1459,0.313073316288125
18.146,0.315649827849134
18.1461,0.296003927153326
18.1462,0.281833113472169
18.1463,0.343025263086877
18.1464,0.410336626735599
18.1465,0.478936245503447
18.1466,0.451560810838218
18.1467,0.481512756998697
18.1468,0.524025196631254
18.1469,0.525957580249946
18.147,0.544959352500801
18.1471,0.534653306533964
18.1472,0.530788539296617
18.1473,0.488920227545532
18.1474,0.477325925818717
18.1475,0.456069705963602
18.1476,0.387792150959935
18.1477,0.39358930188115
18.1478,0.344635582801451
18.1479,0.27378151476416
18.148,0.219674770916768
18.1481,0.174585816913628
18.1482,0.119190815123009
18.1483,0.0621854919846457
18.1484,0.00904493493332804
18.1485,0.00904493493332804
18.1486,-0.0682504238702646
18.1487,-0.0653518478436669
18.1488,-0.0856418801532485
18.1489,-0.0927272883301028
18.149,-0.0811329840593927
18.1491,-0.0576223118010223
18.1492,-0.0382984718713644
18.1493,-0.0325013199408365
18.1494,-0.0128554163379649
18.1495,-0.0183305042024911
18.1496,-0.0560119917972804
18.1497,-0.0202628881592181
18.1498,-0.0238055920860791
18.1499,-0.0337895759234957
18.15,0.00163746321283972
18.1501,0.00099333523556297
18.1502,-0.00480381657141904
18.1503,0.00260365517827829
18.1504,0.0293349659993493
18.1505,0.0779666268060862
18.1506,0.0914933136918109
18.1507,0.145922124296972
18.1508,0.20485982897306
18.1509,0.266051979986357
18.151,0.281833113472169
18.1511,0.297936310832825
18.1512,0.273137386866695
18.1513,0.302767270027193
18.1514,0.277324218198021
18.1515,0.270882939224593
18.1516,0.289562648214299
18.1517,0.280544857680157
18.1518,0.294715671366431
18.1519,0.30502171764912
18.152,0.335939856336003
18.1521,0.353009245308365
18.1522,0.338838431826339
18.1523,0.328532385629822
18.1524,0.354619565019562
18.1525,0.384893575497264
18.1526,0.399386452797049
18.1527,0.450916682963015
18.1528,0.476681797944782
18.1529,0.494073250533065
18.153,0.51790598183852
18.1531,0.518872173647927
18.1532,0.473139094637668
18.1533,0.501480721075748
18.1534,0.463155112585727
18.1535,0.433847294255304
18.1536,0.387148023079462
18.1537,0.348178286171561
18.1538,0.3246676182998
18.1539,0.270560875275597
18.154,0.234811776734224
18.1541,0.160092938668344
18.1542,0.123377646702296
18.1543,0.0766783709072504
18.1544,0.0644399398244458
18.1545,-0.000616984708743176
18.1546,-0.0647077198385451
18.1547,-0.0911169682867399
18.1548,-0.128476393783827
18.1549,-0.168412332564313
18.155,-0.198042223457891
18.1551,-0.218332257865126
18.1552,-0.207704144560249
18.1553,-0.218010193824151
18.1554,-0.184837598078597
18.1555,-0.158428347750974
18.1556,-0.127510201731944
18.1557,-0.0837094961112535
18.1558,-0.0466721358101768
18.1559,-0.0460280078132274
18.156,0.00163746321283972
18.1561,0.0129097027743064
18.1562,0.0599310441420883
18.1563,0.0821534584713071
18.1564,0.0654061317549479
18.1565,0.0148420866914326
18.1566,-0.00866858445430597
18.1567,-0.0511810317966091
18.1568,-0.0560119917972804
18.1569,-0.106253976768757
18.157,-0.150054683130229
18.1571,-0.174853613131822
18.1572,-0.173565357015617
18.1573,-0.191600942766839
18.1574,-0.220586706154474
18.1575,-0.223807346575505
18.1576,-0.230892755533746
18.1577,-0.177430125368304
18.1578,-0.183227277920332
18.1579,-0.137172122282979
18.158,-0.0946596723846107
18.1581,-0.09852444050175
18.1582,-0.0560119917972804
18.1583,-0.0273482960210007
18.1584,-0.0109230323902946
18.1585,-0.0112450963814101
18.1586,0.00163746321283972
18.1587,0.0560662764055365
18.1588,0.035454181670316
18.1589,0.067660579590832
18.159,0.0428616532433047
18.1591,-0.0115671603725907
18.1592,-0.0357219598995199
18.1593,-0.0862860081678388
18.1594,-0.0820991760782881
18.1595,-0.104965720721209
18.1596,-0.199974607672024
18.1597,-0.221874962321801
18.1598,-0.252148982675918
18.1599,-0.289186349136691
18.16,-0.256657879394751
18.1601,-0.266963929107615
18.1602,-0.311408769634918
18.1603,-0.338140087685425
18.1604,-0.390636533682162
18.1605,-0.388060020927913
18.1606,-0.389992405492936
18.1607,-0.383873187717324
18.1608,-0.454405226658378
18.1609,-0.509800256637433
18.161,-0.484357190094831
18.1611,-0.480170356433449
18.1612,-0.45826999607584
18.1613,-0.502392781488365
18.1614,-0.530412361749749
18.1615,-0.515275347007505
18.1616,-0.490476408560122
18.1617,-0.513665026306661
18.1618,-0.520750437413915
18.1619,-0.517529795993968
18.162,-0.477271779295297
18.1621,-0.459236188432878
18.1622,-0.525581399567547
18.1623,-0.554567173093885
18.1624,-0.577111664343523
18.1625,-0.582586755173556
18.1626,-0.611894594984914
18.1627,-0.63379495954096
18.1628,-0.639592114972475
18.1629,-0.611250466625294
18.163,-0.568415931927795
18.1631,-0.57292483020536
18.1632,-0.55972019960839
18.1633,-0.506257551123131
18.1634,-0.526547592001698
18.1635,-0.503358973895377
18.1636,-0.488221959646715
18.1637,-0.413503084688983
18.1638,-0.350378522694283
18.1639,-0.281134747623351
18.164,-0.239266420723359
18.1641,-0.244097381438085
18.1642,-0.189346494533189
18.1643,-0.163259308134517
18.1644,-0.159072475801033
18.1645,-0.110762872944835
18.1646,-0.0763020239748192
18.1647,-0.0141436723043839
18.1648,0.00485810309541634
18.1649,0.0203171744445366
18.165,0.0370645015801481
18.1651,0.0744239230821869
18.1652,0.107596512244213
18.1653,0.0972904651856137
18.1654,0.106308256364759
18.1655,0.0805431386011503
18.1656,0.0660502597083365
18.1657,0.0493029328467772
18.1658,0.0216054303838614
18.1659,0.0187068545190009
18.166,0.00260365517827829
18.1661,-0.0125333523465235
18.1662,-0.009634776426483
18.1663,-0.0585885038041153
18.1664,-0.0608429518138122
18.1665,-0.0746917039502811
18.1666,-0.0695386798839552
18.1667,-0.0779123440011806
18.1668,-0.0444176878220658
18.1669,-0.0299248079787633
18.167,-0.0173643122250185
18.1671,-0.0205849521522374
18.1672,-0.026382104037947
18.1673,-0.0160760562559767
18.1674,-0.0527913517950787
18.1675,-0.0312130639592598
18.1676,-0.0669621678577254
18.1677,-0.0634194638291595
18.1678,-0.0927272883301028
18.1679,-0.0792006000235858
18.168,-0.0192966961805572
18.1681,-0.0279924240100383
18.1682,-0.00641413652149229
18.1683,-0.00512588056130488
18.1684,0.0248260702278981
18.1685,0.0248260702278981
18.1686,0.00453603910744357
18.1687,0.0418954613007698
18.1688,0.0827975864189924
18.1689,0.102443488721496
18.169,0.0960022092995673
18.1691,0.123055582734953
18.1692,0.138514653112913
18.1693,0.15687229904617
18.1694,0.137548461217513
18.1695,0.165245962054585
18.1696,0.170076921468982
18.1697,0.212589363910298
18.1698,0.263153404439996
18.1699,0.254135613834561
18.17,0.258644509140477
18.1701,0.228048433719336
18.1702,0.213233491820735
18.1703,0.218708579053322
18.1704,0.203571573148011
18.1705,0.192943462567159
18.1706,0.168144537704399
18.1707,0.120479070994444
18.1708,0.10276555269205
18.1709,0.0534897645766121
18.171,0.0493029328467772
18.1711,0.0331997337940514
18.1712,0.010011126894416
18.1713,-0.0170422482326594
18.1714,-0.0582664398030136
18.1715,-0.0508589677971251
18.1716,-0.0621312078209161
18.1717,-0.0872522001902805
18.1718,-0.126866073697751
18.1719,-0.10560984874483
18.172,-0.130086713871884
18.1721,-0.151987067268545
18.1722,-0.178718381488586
18.1723,-0.197076031352008
18.1724,-0.207060016484285
18.1725,-0.255047559135902
18.1726,-0.241198805006744
18.1727,-0.250860726473929
18.1728,-0.23604578025845
18.1729,-0.217688129783266
18.173,-0.246995957876969
18.1731,-0.246351829778786
18.1732,-0.242164997149688
18.1733,-0.276625850802557
18.1734,-0.284999516342106
18.1735,-0.293051117884933
18.1736,-0.29079666944673
18.1737,-0.303035103884041
18.1738,-0.257624071551196
18.1739,-0.22090877019617
18.174,-0.188702366467212
18.1741,-0.184193470015033
18.1742,-0.200940799780275
18.1743,-0.201906991889317
18.1744,-0.196753967316888
18.1745,-0.184515534046772
18.1746,-0.198042223457891
18.1747,-0.175175677161085
18.1748,-0.147800234972582
18.1749,-0.12525575361365
18.175,-0.184837598078597
18.1751,-0.13105290592567
18.1752,-0.162937244108365
18.1753,-0.185481726142504
18.1754,-0.162293116056311
18.1755,-0.12364543353152
18.1756,-0.0946596723846107
18.1757,-0.125899881647054
18.1758,-0.102711272640939
18.1759,-0.0866080721752452
18.176,-0.0920831603125332
18.1761,-0.0840315601180679
18.1762,-0.0750137679550431
18.1763,-0.0476383278061212
18.1764,-0.0727593199232352
18.1765,-0.0669621678577254
18.1766,-0.026382104037947
18.1767,-0.0411970478449199
18.1768,-0.000294920719754455
18.1769,-0.000294920719754455
18.177,-0.00931271243569246
18.1771,-0.00126111268691216
18.1772,-0.0254159120554957
18.1773,0.010011126894416
18.1774,-0.00126111268691216
18.1775,0.0290129020160669
18.1776,0.0431837172240324
18.1777,0.0447940371267934
18.1778,0.0457602290677493
18.1779,0.0631516839163255
18.178,0.10502000048449
18.1781,0.119512879090942
18.1782,0.134327821563108
18.1783,0.158482618857816
18.1784,0.204537765016856
18.1785,0.215487939506064
18.1786,0.261543084690895
18.1787,0.284409625054763
18.1788,0.284731689002454
18.1789,0.306309973432481
18.179,0.341092879428644
18.1791,0.360094652033716
18.1792,0.379418488508338
18.1793,0.322091106744479
18.1794,0.300190758457637
18.1795,0.323057298577911
18.1796,0.317904275463662
18.1797,0.27023881132657
18.1798,0.247372270863459
18.1799,0.211945235999709
18.18,0.228370497672786
18.1801,0.214199683686104
18.1802,0.20969078831144
18.1803,0.197452357970408
18.1804,0.175552008793529
18.1805,0.155261979233402
18.1806,0.164923898093276
18.1807,0.13626020535632
18.1808,0.107274448274426
18.1809,0.0805431386011503
18.181,0.109850960031302
18.1811,0.112105407815914
18.1812,0.0902050578019862
18.1813,0.0766783709072504
18.1814,-0.0057700085412697
18.1815,-0.0337895759234957
18.1816,-0.0392646638619329
18.1817,-0.023161464098779
18.1818,-0.0370102158848965
18.1819,-0.0601988238106869
18.182,-0.0573002478001327
18.1821,-0.0669621678577254
18.1822,-0.10399952868635
18.1823,-0.0943376083753385
18.1824,-0.133307354053956
18.1825,-0.123967497547789
18.1826,-0.100778888575105
18.1827,-0.0956258644128786
18.1828,-0.102389208629776
18.1829,-0.0627753358248952
18.183,-0.0299248079787633
18.1831,-0.0585885038041153
18.1832,-0.0788785360178747
18.1833,-0.0759799599697659
18.1834,-0.0804888560471635
18.1835,-0.0643856558360915
18.1836,-0.0637415278313987
18.1837,-0.0817771120719161
18.1838,-0.0511810317966091
18.1839,-0.049892775799092
18.184,-0.0128554163379649
18.1841,0.0335217977765539
18.1842,0.0608972360749514
18.1843,0.0902050578019862
18.1844,0.143667676547911
18.1845,0.187790439239424
18.1846,0.201639189409259
18.1847,0.230947009299086
18.1848,0.257678317289751
18.1849,0.26186514864078
18.185,0.265729916036889
18.1851,0.246406079009229
18.1852,0.184247735695503
18.1853,0.160415002630317
18.1854,0.134649885528762
18.1855,0.150753083751641
18.1856,0.131751309836158
18.1857,0.132395437768182
18.1858,0.145277996368901
18.1859,0.103731744603403
18.186,0.0786107547551777
18.1861,0.078932818729642
18.1862,0.0753901150075421
18.1863,0.0331997337940514
18.1864,0.00679048702192774
18.1865,-0.0189746321878025
18.1866,-0.0518251597957869
18.1867,-0.0479603918049083
18.1868,-0.0682504238702646
18.1869,-0.120102729357746
18.187,-0.164225500213472
18.1871,-0.184193470015033
18.1872,-0.239266420723359
18.1873,-0.257302007498953
18.1874,-0.267608057217915
18.1875,-0.283711260100956
18.1876,-0.287898092890434
18.1877,-0.30657780861649
18.1878,-0.291440797571437
18.1879,-0.292084925696538
18.188,-0.308832257088931
18.1881,-0.296915886647431
18.1882,-0.27565965862915
18.1883,-0.254725495084415
18.1884,-0.280490619504926
18.1885,-0.237334036443306
18.1886,-0.223807346575505
18.1887,-0.171955036872265
18.1888,-0.172599164929352
18.1889,-0.146511978884293
18.189,-0.0914390322952629
18.1891,-0.0238055920860791
18.1892,0.0145200227054001
18.1893,0.0702370913999349
18.1894,0.131751309836158
18.1895,0.188756631114172
18.1896,0.202283317322334
18.1897,0.185858055488815
18.1898,0.199384741712251
18.1899,0.21774238718954
18.19,0.221607154642652
18.1901,0.230302881392727
18.1902,0.205826020841435
18.1903,0.192621398609481
18.1904,0.15687229904617
18.1905,0.111461279877705
18.1906,0.0634737478934397
18.1907,0.0129097027743064
18.1908,-0.0563340557978877
18.1909,-0.119780665342418
18.191,-0.120746857388636
18.1911,-0.151020875199018
18.1912,-0.149088491062176
18.1913,-0.0933714163479721
18.1914,-0.108830488867529
18.1915,-0.0785564720122368
18.1916,-0.0601988238106869
18.1917,-0.0141436723043839
18.1918,0.0554221484486483
18.1919,0.0931036335529051
18.192,0.181993287983119
18.1921,0.182959479860105
18.1922,0.200350933582635
18.1923,0.215810003460959
18.1924,0.244151631348164
18.1925,0.271527067122492
18.1926,0.271205003173558
18.1927,0.257356253339444
18.1928,0.258644509140477
18.1929,0.254779741735802
18.193,0.291495031897208
18.1931,0.327888257741729
18.1932,0.306309973432481
18.1933,0.274425642661502
18.1934,0.236422096497352
18.1935,0.17780645651181
18.1936,0.144955932404795
18.1937,0.12241145480012
18.1938,0.106308256364759
18.1939,0.0683047075434406
18.194,0.0158082786491586
18.1941,-0.0592326318065313
18.1942,-0.0946596723846107
18.1943,-0.093049352339
18.1944,-0.0666401038547703
18.1945,-0.0840315601180679
18.1946,-0.0917610963038607
18.1947,-0.069860743887558
18.1948,-0.0727593199232352
18.1949,-0.0370102158848965
18.195,-0.0176863762174435
18.1951,-0.00351556061251862
18.1952,0.0119435108149041
18.1953,0.0409292693577065
18.1954,0.0534897645766121
18.1955,0.016774470606328
18.1956,-0.0221952721183279
18.1957,-0.0511810317966091
18.1958,-0.0763020239748192
18.1959,-0.116882089207981
18.196,-0.112373193011375
18.1961,-0.0601988238106869
18.1962,-0.00931271243569246
18.1963,0.0644399398244458
18.1964,0.107274448274426
18.1965,0.20679221270946
18.1966,0.239964799973133
18.1967,0.29729218293977
18.1968,0.337872239996435
18.1969,0.409048370979015
18.197,0.457680025650812
18.1971,0.446407787835509
18.1972,0.487954035735233
18.1973,0.500192465329338
18.1974,0.491818802976165
18.1975,0.468308135581169
18.1976,0.39487755764069
18.1977,0.337550176053088
18.1978,0.291817095844258
18.1979,0.22933668953292
18.198,0.165568026015851
18.1981,0.0863402901274238
18.1982,-0.00448175258159754
18.1983,-0.0827433040912531
18.1984,-0.171632972843848
18.1985,-0.210280656867656
18.1986,-0.244741509534962
18.1987,-0.273083146170994
18.1988,-0.292084925696538
18.1989,-0.298204142904777
18.199,-0.377109841800967
18.1991,-0.408350059060538
18.1992,-0.426385648887559
18.1993,-0.454083162541026
18.1994,-0.483068933581444
18.1995,-0.565195290316825
18.1996,-0.607063632301131
18.1997,-0.681460461123016
18.1998,-0.754891104986176
18.1999,-0.78806372302281
18.2,-0.858586375037165
18.2001,-0.889504548279645
18.2002,-0.939102454490938
18.2003,-0.973563339837198
18.2004,-1.00254913285139
18.2005,-1.0141434504736
18.2006,-1.01027867790621
18.2007,-1.00222706847641
18.2008,-1.022195060075
18.2009,-1.05182498441771
18.201,-1.09949051827433
18.2011,-1.16132689293729
18.2012,-1.18548172881198
18.2013,-1.19610985696361
18.2014,-1.24023269445094
18.2015,-1.2740494704079
18.2016,-1.27082882497629
18.2017,-1.27211708314633
18.2018,-1.24345333967832
18.2019,-1.25182701736944
18.202,-1.22445153314387
18.2021,-1.19836430841873
18.2022,-1.13910444494373
18.2023,-1.09594780953073
18.2024,-1.0215509313026
18.2025,-0.983225270677752
18.2026,-0.945543741316372
18.2027,-0.906896021417907
18.2028,-0.827346139053505
18.2029,-0.750372780586429
18.203,-0.745219752724608
18.2031,-0.740066724902057
18.2032,-0.688858513015315
18.2033,-0.600290859607194
18.2034,-0.588374485223908
18.2035,-0.53265738578961
18.2036,-0.485958085750996
18.2037,-0.462769468762873
18.2038,-0.385152019099516
18.2039,-0.409306826375351
18.204,-0.369048814593986
18.2041,-0.306568383628176
18.2042,-0.28692247571846
18.2043,-0.245698276692663
18.2044,-0.259224966825519
18.2045,-0.207050591495971
18.2046,-0.182895788900622
18.2047,-0.218966960959032
18.2048,-0.228950946279718
18.2049,-0.255360198199168
18.205,-0.275650233640836
18.2051,-0.26083528709053
18.2052,-0.211559488035181
18.2053,-0.230561266500918
18.2054,-0.185794365186273
18.2055,-0.175488316202119
18.2056,-0.129111096830498
18.2057,-0.111075511969674
18.2058,-0.0962605674437857
18.2059,-0.0186431432067995
18.206,0.0528550616071229
18.2061,0.127251839294922
18.2062,0.241584544721768
18.2063,0.298267799767624
18.2064,0.349475966930165
18.2065,0.42161828958447
18.2066,0.497303314888016
18.2067,0.564292613682906
18.2068,0.595210751627358
18.2069,0.626128889644123
18.207,0.6889313578551
18.2071,0.694084380916169
18.2072,0.709543450130332
18.2073,0.706966938591298
18.2074,0.72339219967682
18.2075,0.759141297549697
18.2076,0.792313884166838
18.2077,0.765260512533487
18.2078,0.791669756268309
18.2079,0.76687083226775
18.208,0.748513187338189
18.2081,0.731121734325927
18.2082,0.73885126898897
18.2083,0.72532458333782
18.2084,0.690541677561151
18.2085,0.698915340040508
18.2086,0.704068363111512
18.2087,0.74754699550222
18.2088,0.772023855422205
18.2089,0.769447343844056
18.209,0.802941994511018
18.2091,0.8035861224118
18.2092,0.843522052529738
18.2093,0.899561181270465
18.2094,0.866066529460581
18.2095,0.872507808619485
18.2096,0.863812081758802
18.2097,0.836758709487128
18.2098,0.818079000214799
18.2099,0.777176878584114
18.21,0.746258739721294
18.2101,0.67733705598535
18.2102,0.640621766874085
18.2103,0.625162697829664
18.2104,0.564614677619572
18.2105,0.471216136003574
18.2106,0.387479512008021
18.2107,0.374596954384436
18.2108,0.295047160301511
18.2109,0.221938643585151
18.211,0.202614806267126
18.2111,0.161068555542442
18.2112,0.0753995399958564
18.2113,0.0119529358032184
18.2114,-0.028949191005784
18.2115,-0.0811235590710784
18.2116,-0.107210743816907
18.2117,-0.134908249159668
18.2118,-0.115906472176257
18.2119,-0.067596870875537
18.212,-0.0138121833243667
18.2121,0.109860385019616
18.2122,0.214853236584474
18.2123,0.326609426953566
18.2124,0.488929652533846
18.2125,0.604872669748218
18.2126,0.729833478550122
18.2127,0.869609232995957
18.2128,1.00809673922009
18.2129,1.09827465577413
18.213,1.17911272121581
18.2131,1.24964474247115
18.2132,1.29119100348384
18.2133,1.31309135873425
18.2134,1.36880844099574
18.2135,1.37363940202487
18.2136,1.3894205415465
18.2137,1.41550773191447
18.2138,1.41711805233024
18.2139,1.43901841025169
18.214,1.39553975897857
18.2141,1.36011271120044
18.2142,1.2973102203489
18.2143,1.26671413635154
18.2144,1.19650417814806
18.2145,1.12242945572593
18.2146,1.01486008279466
18.2147,0.889577198471111
18.2148,0.756564785980567
18.2149,0.560105782506612
18.215,0.453180555514376
18.2151,0.309862101822828
18.2152,0.167187770809835
18.2153,0.0277340710706487
18.2154,-0.0685630628852649
18.2155,-0.19191358181225
18.2156,-0.26212354330425
18.2157,-0.319773010465901
18.2158,-0.366150237811845
18.2159,-0.403831736671043
18.216,-0.399644903389663
18.2161,-0.452463416967731
18.2162,-0.469532815319815
18.2163,-0.503671613042982
18.2164,-0.478872674938076
18.2165,-0.486602214009643
18.2166,-0.53265738578961
18.2167,-0.563253480368255
18.2168,-0.600612923782289
18.2169,-0.639260625792327
18.217,-0.649888744197331
18.2171,-0.680484843503794
18.2172,-0.72042080668602
18.2173,-0.753915487264293
18.2174,-0.765831864409102
18.2175,-0.718810485545709
18.2176,-0.634429662931681
18.2177,-0.559710774620076
18.2178,-0.530402936761435
18.2179,-0.454395801670063
18.218,-0.437648467723909
18.2181,-0.346826392819351
18.2182,-0.234103970995616
18.2183,-0.126856648709437
18.2184,-0.0221858471300136
18.2185,0.0522109336490898
18.2186,0.0940792504572451
18.2187,0.0934351225132805
18.2188,0.0638052368588121
18.2189,-0.0189652071994882
18.219,-0.08498832715064
18.2191,-0.184506109058458
18.2192,-0.291753436645624
18.2193,-0.433461634286763
18.2194,-0.572593341053501
18.2195,-0.730404797840067
18.2196,-0.883707390677843
18.2197,-1.008668356011
18.2198,-1.13298522030231
18.2199,-1.29144095611458
18.22,-1.41736821465334
18.2201,-1.54426170322404
18.2202,-1.69273357549088
18.2203,-1.8096431372701
18.2204,-1.92172176021664
18.2205,-1.99096575478277
18.2206,-2.03669900536825
18.2207,-2.08436465345113
18.2208,-2.09306041431365
18.2209,-2.10046791448905
18.221,-2.11109606720713
18.2211,-2.0833984578139
18.2212,-2.0833984578139
18.2213,-2.07341443639473
18.2214,-2.08500878387752
18.2215,-2.06439661085547
18.2216,-2.09016182733395
18.2217,-2.04990367746535
18.2218,-1.99322021065335
18.2219,-1.94136772936595
18.222,-1.89434623126291
18.2221,-1.78903098048712
18.2222,-1.74716254052867
18.2223,-1.6679345821297
18.2224,-1.59643619439871
18.2225,-1.50529187150443
18.2226,-1.43637002909692
18.2227,-1.39482369009933
18.2228,-1.36680406830489
18.2229,-1.32590186487099
18.223,-1.32203708993081
18.2231,-1.30142495745669
18.2232,-1.26213308241903
18.2233,-1.21156895286091
18.2234,-1.17936250361459
18.2235,-1.14683399196286
18.2236,-1.10077877600516
18.2237,-1.06986059132596
18.2238,-0.997718167246088
18.2239,-0.991921008574294
18.224,-0.943933419603369
18.2241,-0.920422723095817
18.2242,-0.864383532401836
18.2243,-0.853755410607957
18.2244,-0.76422154316089
18.2245,-0.705605852336382
18.2246,-0.62090296708912
18.2247,-0.547794400855942
18.2248,-0.50689225440902
18.2249,-0.450208968153719
18.225,-0.395136006030849
18.2251,-0.313009664991134
18.2252,-0.231527458634736
18.2253,-0.197066606363694
18.2254,-0.135230313178713
18.2255,-0.0595452708195313
18.2256,-0.0605114628238998
18.2257,0.00937642390873426
18.2258,0.0660596846966508
18.2259,0.117911984239097
18.226,0.154949340259027
18.2261,0.193919079428263
18.2262,0.198105910872829
18.2263,0.231600562193614
18.2264,0.271214428161872
18.2265,0.248992015608144
18.2266,0.252856783019995
18.2267,0.267993788670816
18.2268,0.284096986095357
18.2269,0.294403032407951
18.227,0.302132567123283
18.2271,0.288605881360769
18.2272,0.284741113990768
18.2273,0.336593409211221
18.2274,0.348187711159875
18.2275,0.300522247392242
18.2276,0.334983089493787
18.2277,0.344322943846895
18.2278,0.344645007789766
18.2279,0.326287363009385
18.228,0.31887989228639
18.2281,0.283452858199827
18.2282,0.28248666635631
18.2283,0.270570300263911
18.2284,0.314693061002264
18.2285,0.329508002450095
18.2286,0.338525792871375
18.2287,0.328863874562147
18.2288,0.300200183445951
18.2289,0.274435067649816
18.229,0.27218062000858
18.2291,0.268959980518462
18.2292,0.303098758961579
18.2293,0.291182392938442
18.2294,0.281198410564537
18.2295,0.242228672625653
18.2296,0.238363905200255
18.2297,0.262196637578946
18.2298,0.290538265044197
18.2299,0.331762450057154
18.23,0.343356752018151
18.2301,0.326609426953566
18.2302,0.368155675561583
18.2303,0.38908983170899
18.2304,0.373630762561492
18.2305,0.347543583274599
18.2306,0.385547128366293
18.2307,0.389411895649133
18.2308,0.369765995268014
18.2309,0.309862101822828
18.231,0.355273117892207
18.2311,0.328541810618137
18.2312,0.350442158757654
18.2313,0.305353206583315
18.2314,0.293758904514277
18.2315,0.261552509679209
18.2316,0.246737567948988
18.2317,0.232888818005612
18.2318,0.219684195905082
18.2319,0.187477800269407
18.232,0.183613032766202
18.2321,0.223226899401517
18.2322,0.232888818005612
18.2323,0.204869253961374
18.2324,0.222904835447481
18.2325,0.207123701653705
18.2326,0.218073876132486
18.2327,0.241906608673727
18.2328,0.230312306381042
18.2329,0.222582771493408
18.233,0.253500910921502
18.2331,0.25060233536367
18.2332,0.246093440046065
18.2333,0.316947508617332
18.2334,0.321456403843714
18.2335,0.326609426953566
18.2336,0.305031142637434
18.2337,0.258331870178582
18.2338,0.310506229713761
18.2339,0.294403032407951
18.234,0.25800980622834
18.2341,0.27572332344413
18.2342,0.294725096354745
18.2343,0.259298062029112
18.2344,0.269926172365825
18.2345,0.274757131598441
18.2346,0.253822974872205
18.2347,0.24319486448122
18.2348,0.240940416817744
18.2349,0.225481347078738
18.235,0.202614806267126
18.2351,0.177493817540497
18.2352,0.158814107808325
18.2353,0.172340794180673
18.2354,0.148830124959327
18.2355,0.139168206031258
18.2356,0.149152188922879
18.2357,0.128862159127989
18.2358,0.139168206031258
18.2359,0.125319455493642
18.236,0.148830124959327
18.2361,0.147219805140876
18.2362,0.196495591087261
18.2363,0.18586748047713
18.2364,0.184579224642563
18.2365,0.163000939312811
18.2366,0.217429748223185
18.2367,0.191986695682318
18.2368,0.180070329216329
18.2369,0.181358585053233
18.237,0.20197067835413
18.2371,0.202292742310648
18.2372,0.170730474378477
18.2373,0.211310533077281
18.2374,0.182646840889466
18.2375,0.179748265256997
18.2376,0.169442218535942
18.2377,0.173306986061474
18.2378,0.177171753580828
18.2379,0.132404862756497
18.238,0.155915532146958
18.2381,0.130150414993573
18.2382,0.130472478959849
18.2383,0.150762508739955
18.2384,0.166221578926564
18.2385,0.18554541651855
18.2386,0.171374602299485
18.2387,0.190376375892913
18.2388,0.219040067996156
18.2389,0.228701986614515
18.239,0.208734021432776
18.2391,0.216141492404131
18.2392,0.233210881958522
18.2393,0.220972451722487
18.2394,0.261230445729293
18.2395,0.248347887705698
18.2396,0.251890591167485
18.2397,0.286995561623781
18.2398,0.28087634661652
18.2399,0.234821201722538
18.24,0.206157509785797
18.2401,0.231278498240525
18.2402,0.21292085285385
18.2403,0.195529399215439
18.2404,0.206157509785797
18.2405,0.176849689621116
18.2406,0.168798090614415
18.2407,0.179748265256997
18.2408,0.161390619504281
18.2409,0.152050764592795
18.241,0.151084572703233
18.2411,0.153016956481947
18.2412,0.119844368047139
18.2413,0.0969778262024945
18.2414,0.0650934927664841
18.2415,0.0493123578350915
18.2416,0.0390063104583047
18.2417,0.058330149241166
18.2418,0.0931130585412194
18.2419,0.0847393952490729
18.242,0.0850614592225129
18.2421,0.0953675063445453
18.2422,0.105029425472804
18.2423,0.115013408523684
18.2424,0.106317681353073
18.2425,0.0831290753810686
18.2426,0.0760436679458198
18.2427,0.0451255260954847
18.2428,0.0319209028517578
18.2429,0.0161397676232578
18.243,0.0219369193568539
18.2431,0.0315988388689561
18.2432,0.063483172881754
18.2433,0.0737892201199904
18.2434,0.100842593856269
18.2435,0.0618728529956209
18.2436,0.0193604074777137
18.2437,0.0483461658960527
18.2438,0.0799084356410237
18.2439,0.06219491697296
18.244,0.0908586107353185
18.2441,0.0560757013938508
18.2442,0.07250096421831
18.2443,0.0596184051526685
18.2444,0.0663817486732613
18.2445,0.0570418933287558
18.2446,0.0448034621151077
18.2447,0.07250096421831
18.2448,0.0805525635894646
18.2449,0.0950454423727987
18.245,0.100198465914491
18.2451,0.0663817486732613
18.2452,0.12113262391818
18.2453,0.127251839294922
18.2454,0.139812333961101
18.2455,0.106639745323013
18.2456,0.123065007723267
18.2457,0.149474252886386
18.2458,0.141744717749504
18.2459,0.142710909643074
18.246,0.126285647394501
18.2461,0.168153962692714
18.2462,0.171052538339002
18.2463,0.160102363656659
18.2464,0.149474252886386
18.2465,0.200360358570949
18.2466,0.266383468924108
18.2467,0.293436840567398
18.2468,0.360426140963854
18.2469,0.490539972217579
18.247,0.563004357936284
18.2471,0.636756999610272
18.2472,0.727256966999665
18.2473,0.798433099209201
18.2474,0.889899262431725
18.2475,0.918562955104363
18.2476,0.957854759150386
18.2477,0.952379671657014
18.2478,0.942073624650353
18.2479,0.915342315460265
18.248,0.887644814708331
18.2481,0.841267604847037
18.2482,0.802619930560676
18.2483,0.74980144311985
18.2484,0.690219613619902
18.2485,0.609059500936381
18.2486,0.511796192033577
18.2487,0.486997268913204
18.2488,0.448349596450132
18.2489,0.37491901832538
18.249,0.294725096354745
18.2491,0.216785620313733
18.2492,0.134337246551422
18.2493,0.0592963411748779
18.2494,-0.0212196551501603
18.2495,-0.135874441217043
18.2496,-0.194490094085183
18.2497,-0.236036355270136
18.2498,-0.282091514813406
18.2499,-0.34231749570938
18.25,-0.411239210984658
18.2501,-0.422511454620457
18.2502,-0.471787264183894
18.2503,-0.471465200060093
18.2504,-0.505603997861111
18.2505,-0.523317525570657
18.2506,-0.545217887633047
18.2507,-0.595781961170112
18.2508,-0.636039983881722
18.2509,-0.622513288009896
18.251,-0.642803331910241
18.2511,-0.646346038045225
18.2512,-0.674687687745829
18.2513,-0.706249980779799
18.2514,-0.69819837527974
18.2515,-0.708182366113621
18.2516,-0.726862091284916
18.2517,-0.708182366113621
18.2518,-0.713335393696715
18.2519,-0.698520439497966
18.252,-0.712369201021973
18.2521,-0.652787321970917
18.2522,-0.646990166435242
18.2523,-0.631209021042101
18.2524,-0.645057781266889
18.2525,-0.645379845461261
18.2526,-0.630564892665862
18.2527,-0.623801544749012
18.2528,-0.606410078957307
18.2529,-0.580644945181999
18.253,-0.512367344759932
18.2531,-0.463091532883435
18.2532,-0.449564839922207
18.2533,-0.379032801355257
18.2534,-0.33265557339999
18.2535,-0.281769450753852
18.2536,-0.241511444065985
18.2537,-0.204796143232889
18.2538,-0.182895788900622
18.2539,-0.173555932027303
18.254,-0.200287246719705
18.2541,-0.229595074367924
18.2542,-0.236680483362379
18.2543,-0.237324611454992
18.2544,-0.26566624789985
18.2545,-0.299805038240387
18.2546,-0.303991871094281
18.2547,-0.279515002339706
18.2548,-0.269531016562806
18.2549,-0.262445607357918
18.255,-0.295618205403363
18.2551,-0.292719628833721
18.2552,-0.277260553930332
18.2553,-0.247630660987212
18.2554,-0.269208952507031
18.2555,-0.221543473291519
18.2556,-0.229917138412164
18.2557,-0.189015005511843
18.2558,-0.173555932027303
18.2559,-0.148757002051341
18.256,-0.132653801028591
18.2561,-0.0975488234831328
18.2562,-0.132331737010184
18.2563,-0.133619993084288
18.2564,-0.104312167709579
18.2565,-0.0914296073069486
18.2566,-0.0663086148635726
18.2567,-0.0495612868115729
18.2568,-0.0650203588527559
18.2569,-0.0431200068420662
18.257,0.0190383434925452
18.2571,-0.00479439158310475
18.2572,-0.0237961670977648
18.2573,-0.0466627108218625
18.2574,-0.0382890468830501
18.2575,-0.019287271192243
18.2576,-0.0337801509351814
18.2577,-0.0453744548282409
18.2578,-0.0427979428443173
18.2579,-0.0392552388736186
18.258,-0.0183210792141768
18.2581,-0.0157445672755663
18.2582,-0.00737090350399595
18.2583,0.0171059595802419
18.2584,0.0100205518827303
18.2585,-0.0122018633668331
18.2586,-0.0151004392915709
18.2587,-0.00801503148486439
18.2588,0.00937642390873426
18.2589,-0.000607559720428891
18.259,-0.000285495731440169
18.2591,-0.00415026360352604
18.2592,0.0142073837076198
18.2593,0.0293443909876636
18.2594,0.0238693032636412
18.2595,0.00132482421254743
18.2596,-0.0347463429228878
18.2597,-0.00962535143816871
18.2598,-0.000285495731440169
18.2599,-0.000285495731440169
18.26,0.0431931422123467
18.2601,0.0348194786942813
18.2602,0.0335312227648681
18.2603,0.0296664549708857
18.2604,0.00454546409575786
18.2605,-0.00221787966633073
18.2606,0.00808816795999039
18.2607,0.0142073837076198
18.2608,0.0373959905502508
18.2609,0.00937642390873426
18.261,-0.0154225032835358
18.2611,0.00261308016659258
18.2612,-0.0199313991779507
18.2613,-0.030237446985472
18.2614,-0.0167107592520518
18.2615,-0.0202534631709038
18.2616,-0.0353904709150317
18.2617,-0.0144563113078379
18.2618,0.0225810473260271
18.2619,0.00325720814323435
18.262,0.0254796231842893
18.2621,0.0187162795073152
18.2622,0.0412607583271007
18.2623,0.0187162795073152
18.2624,0.00776610397264757
18.2625,-0.00125168769859788
18.2626,0.0183942155220237
18.2627,0.0122749997897481
18.2628,-0.00672677552338607
18.2629,-0.0231520391104648
18.263,-0.0357125349112056
18.2631,-0.0463406468233531
18.2632,-0.0659865508607609
18.2633,-0.0795132390410559
18.2634,-0.0531039908066685
18.2635,-0.0379669828863307
18.2636,-0.0244402950853313
18.2637,-0.01799901522162
18.2638,0.00808816795999039
18.2639,-0.0324918949525222
18.264,-0.0231520391104648
18.2641,0.00808816795999039
18.2642,0.0393283744397381
18.2643,0.0419048862890841
18.2644,0.0650934927664841
18.2645,0.0154956396516261
18.2646,0.00679991201024203
18.2647,-0.00640471153317801
18.2648,0.0129191277626207
18.2649,0.0541433175225007
18.265,0.0541433175225007
18.2651,0.0679920685554784
18.2652,0.0283781990376357
18.2653,0.0258016871682367
18.2654,0.0267678791197151
18.2655,0.0193604074777137
18.2656,0.0612287250407738
18.2657,0.0393283744397381
18.2658,0.00776610397264757
18.2659,0.0245134312320828
18.266,0.0303105829371495
18.2661,0.0277340710706487
18.2662,0.0338532867473109
18.2663,0.00808816795999039
18.2664,0.0245134312320828
18.2665,0.00744403998524193
18.2666,0.00325720814323435
18.2667,0.0116308718166264
18.2668,0.0309547109031729
18.2669,-0.00447232759328325
18.267,-0.0163886952598243
18.2671,-0.0276609350271717
18.2672,0.00969848789576357
18.2673,0.0219369193568539
18.2674,0.0332091587823657
18.2675,0.0406166303648821
18.2676,0.0541433175225007
18.2677,0.0312767748860945
18.2678,0.0618728529956209
18.2679,0.103741169591718
18.268,0.133048990688329
18.2681,0.173629050021655
18.2682,0.18586748047713
18.2683,0.203580998136325
18.2684,0.237719777295533
18.2685,0.210988469121852
18.2686,0.195207335258084
18.2687,0.206157509785797
18.2688,0.206801637697774
18.2689,0.233210881958522
18.269,0.217107684268478
18.2691,0.21839594008708
18.2692,0.200038294614194
18.2693,0.198105910872829
18.2694,0.183290968807332
18.2695,0.179104137338209
18.2696,0.128540095161472
18.2697,0.106639745323013
18.2698,0.109860385019616
18.2699,0.12403119962515
18.27,0.134337246551422
18.2701,0.12338707169061
18.2702,0.147219805140876
18.2703,0.140456461890756
18.2704,0.143999165500516
18.2705,0.112436896773257
18.2706,0.124997391526592
18.2707,0.113081024711165
18.2708,0.102130849739205
18.2709,0.105351489442948
18.271,0.0960116342878816
18.2711,0.118234048207228
18.2712,0.0908586107353185
18.2713,0.0799084356410237
18.2714,0.0499564857941616
18.2715,0.0483461658960527
18.2716,0.0319209028517578
18.2717,-0.00769296749439782
18.2718,-0.0231520391104648
18.2719,-0.0566466948102512
18.272,-0.0746822789619668
18.2721,-0.0933619913596578
18.2722,-0.16002924288843
18.2723,-0.182895788900622
18.2724,-0.192557709879962
18.2725,-0.201897566901003
18.2726,-0.191591517778525
18.2727,-0.176454508290672
18.2728,-0.172589739941038
18.2729,-0.206728527458122
18.273,-0.230883330545432
18.2731,-0.280159130457546
18.2732,-0.320095074537249
18.2733,-0.307534575830046
18.2734,-0.315264113477736
18.2735,-0.296584397595029
18.2736,-0.314942049407917
18.2737,-0.284023899172782
18.2738,-0.302381550763859
18.2739,-0.279515002339706
18.274,-0.229595074367924
18.2741,-0.214136000351144
18.2742,-0.159063050812719
18.2743,-0.105600423756516
18.2744,-0.0415096868540104
18.2745,0.0125970637762155
18.2746,0.0415828223081217
18.2747,0.0715347722914721
18.2748,0.106961809292902
18.2749,0.107605937232527
18.275,0.108894193111167
18.2751,0.131760734824473
18.2752,0.15816997988389
18.2753,0.173629050021655
18.2754,0.173306986061474
18.2755,0.195851463172753
18.2756,0.184257160683818
18.2757,0.187477800269407
18.2758,0.174595241901942
18.2759,0.127895967228294
18.276,0.140134397925952
18.2761,0.106961809292902
18.2762,0.0834511393547768
18.2763,0.0992322740014368
18.2764,0.0596184051526685
18.2765,0.0686361965079759
18.2766,0.0422269502699877
18.2767,0.0441593341541787
18.2768,0.0947233784009999
18.2769,0.0944013144291487
18.277,0.124353263592346
18.2771,0.195529399215439
18.2772,0.223226899401517
18.2773,0.244161056336478
18.2774,0.307929718149393
18.2775,0.27572332344413
18.2776,0.305353206583315
18.2777,0.298589863714081
18.2778,0.292792712673553
18.2779,0.28828381741343
18.278,0.303420822907623
18.2781,0.305997334474996
18.2782,0.290216201097031
18.2783,0.279910154772286
18.2784,0.268315852620063
18.2785,0.289894137149837
18.2786,0.303098758961579
18.2787,0.283774922147607
18.2788,0.265095213126172
18.2789,0.235465329627896
18.279,0.217751812177854
18.2791,0.153016956481947
18.2792,0.0918248026524493
18.2793,-0.0125239273582092
18.2794,-0.0946502473962964
18.2795,-0.141027465535244
18.2796,-0.202219630937527
18.2797,-0.315264113477736
18.2798,-0.351335289949996
18.2799,-0.41381572380341
18.28,-0.413493659700669
18.2801,-0.432495441957898
18.2802,-0.508180510958926
18.2803,-0.535555963120755
18.2804,-0.564863801168139
18.2805,-0.569694763587566
18.2806,-0.608342464025478
18.2807,-0.570983020237768
18.2808,-0.597392282037446
18.2809,-0.561965223730715
18.281,-0.50946876751083
18.2811,-0.431529249630076
18.2812,-0.334910021930456
18.2813,-0.25858083872018
18.2814,-0.177742764409933
18.2815,-0.117516792248996
18.2816,-0.0189652071994882
18.2817,0.0309547109031729
18.2818,0.153983148370691
18.2819,0.227413730800641
18.282,0.258653934128791
18.2821,0.318557828341611
18.2822,0.377495529852262
18.2823,0.408735732028148
18.2824,0.413244627175388
18.2825,0.405837156574847
18.2826,0.367833611620239
18.2827,0.381038233199812
18.2828,0.347221519331928
18.2829,0.300844311338505
18.283,0.229668178474539
18.2831,0.147219805140876
18.2832,0.128218031194907
18.2833,0.0618728529956209
18.2834,-0.00382819961383309
18.2835,-0.059223206818217
18.2836,-0.0869207111944115
18.2837,-0.113007896050218
18.2838,-0.160673370939319
18.2839,-0.193523901982181
18.284,-0.247630660987212
18.2841,-0.267598632229601
18.2842,-0.296906461659117
18.2843,-0.313009664991134
18.2844,-0.350369097705969
18.2845,-0.409306826375351
18.2846,-0.442157365293608
18.2847,-0.464057725245838
18.2848,-0.449242775806627
18.2849,-0.489500791179612
18.285,-0.498518586883168
18.2851,-0.495942073815149
18.2852,-0.53813247631271
18.2853,-0.545862015937994
18.2854,-0.608020399847107
18.2855,-0.637328240644279
18.2856,-0.668246403625371
18.2857,-0.699486632153529
18.2858,-0.732337183241515
18.2859,-0.790308747864541
18.286,-0.844093481861767
18.2861,-0.902065056606982
18.2862,-0.952629156906364
18.2863,-1.00738009849817
18.2864,-1.01188899980604
18.2865,-1.08886239211447
18.2866,-1.11398341792752
18.2867,-1.14103683168765
18.2868,-1.1725991495354
18.2869,-1.26342134056573
18.287,-1.3155957984351
18.2871,-1.35295529035616
18.2872,-1.36100690539147
18.2873,-1.39965465955065
18.2874,-1.38194110515014
18.2875,-1.3713129728442
18.2876,-1.33910651282625
18.2877,-1.29176302067071
18.2878,-1.23636792020619
18.2879,-1.21156895286091
18.288,-1.14973257212495
18.2881,-1.07597981523519
18.2882,-1.02283918884814
18.2883,-0.933627360744911
18.2884,-0.908506343030185
18.2885,-0.84248316041856
18.2886,-0.821226917753214
18.2887,-0.7506948448291
18.2888,-0.669856724650068
18.2889,-0.620580902905381
18.289,-0.559388710461938
18.2891,-0.563575544527969
18.2892,-0.465345981730717
18.2893,-0.424765903364407
18.2894,-0.371303263208373
18.2895,-0.360353084273729
18.2896,-0.309789024304604
18.2897,-0.279515002339706
18.2898,-0.244410020498163
18.2899,-0.202863759010838
18.29,-0.186760557283038
18.2901,-0.11429615210546
18.2902,-0.112363768023061
18.2903,-0.0782249830183578
18.2904,-0.0569687588109995
18.2905,-0.0138121833243667
18.2906,0.0351415426764855
18.2907,0.0995543379725067
18.2908,0.151406636666466
18.2909,0.227735794754164
18.291,0.289894137149837
18.2911,0.356239309718546
18.2912,0.373952826502492
18.2913,0.380716169259216
18.2914,0.428059568354654
18.2915,0.491184100091038
18.2916,0.528543516729823
18.2917,0.535306859395176
18.2918,0.530153836412044
18.2919,0.530475900348488
18.292,0.578785490837543
18.2921,0.638045255364667
18.2922,0.650283685042147
18.2923,0.669285457478314
18.2924,0.718883304471064
18.2925,0.786838797033336
18.2926,0.852539843279153
18.2927,0.934344089428739
18.2928,0.992637668287162
18.2929,1.05157537694327
18.293,1.13048105579814
18.2931,1.21196325117282
18.2932,1.26349349597787
18.2933,1.32339740841383
18.2934,1.3868440289547
18.2935,1.42742410305459
18.2936,1.45705399950731
18.2937,1.4841073840486
18.2938,1.49988852540355
18.2939,1.51244902586564
18.294,1.46510560196607
18.2941,1.47315720449515
18.2942,1.44964652530681
18.2943,1.40777819395573
18.2944,1.38523370858818
18.2945,1.33048281762517
18.2946,1.29376751584403
18.2947,1.22323549203896
18.2948,1.17170524888824
18.2949,1.11083515170004
18.295,0.98780670864712
18.2951,0.87830495987658
18.2952,0.738529205044392
18.2953,0.630637784779658
18.2954,0.495370931268084
18.2955,0.307285590258034
18.2956,0.166221578926564
18.2957,0.0438372701736265
18.2958,-0.058579078815801
18.2959,-0.185150237122193
18.296,-0.271463400899473
18.2961,-0.338774790851694
18.2962,-0.367116430071587
18.2963,-0.454073737552712
18.2964,-0.51526592201919
18.2965,-0.57420366187255
18.2966,-0.651499065181236
18.2967,-0.66438163318079
18.2968,-0.748762459375382
18.2969,-0.780968884333441
18.297,-0.829278524739515
18.2971,-0.859874632224629
18.2972,-0.870502754123508
18.2973,-0.887572162406242
18.2974,-0.927186074050008
18.2975,-0.950052642136401
18.2976,-0.968410310122194
18.2977,-0.981937013222902
18.2978,-1.00576977661129
18.2979,-1.0273480902811
18.298,-1.07791220174732
18.2981,-1.11366135348644
18.2982,-1.13749412266266
18.2983,-1.15746211930397
18.2984,-1.14329128289804
18.2985,-1.15102082998003
18.2986,-1.1236453512519
18.2987,-1.12074677123584
18.2988,-1.12203502901877
18.2989,-1.09079477867318
18.299,-1.06019865897906
18.2991,-1.03733208644203
18.2992,-0.990310686731555
18.2993,-0.957782186480554
18.2994,-0.972597146762113
18.2995,-0.972597146762113
18.2996,-0.964223473512739
18.2997,-0.948764384755694
18.2998,-0.95810425083046
18.2999,-0.899166477739039
18.3,-0.851145359239677
18.3001,-0.813141773827807
18.3002,-0.791885532125204
18.3003,-0.773849933648591
18.3004,-0.741643509016781
18.3005,-0.700741351934951
18.3006,-0.679485113769776
18.3007,-0.629887227163811
18.3008,-0.571271547249523
18.3009,-0.531013527887174
18.301,-0.484958356178697
18.3011,-0.426986814907386
18.3012,-0.428275071338709
18.3013,-0.380609584587658
18.3014,-0.355488585787279
18.3015,-0.295262604089222
18.3016,-0.244054419184022
18.3017,-0.163216345858297
18.3018,-0.104922758430526
18.3019,-0.0256950137412746
18.302,0.0947569157432895
18.3021,0.18557895387407
18.3022,0.248703489019838
18.3023,0.300555784760092
18.3024,0.382360026335634
18.3025,0.471571737317715
18.3026,0.545646442739742
18.3027,0.583327923331747
18.3028,0.595566352941499
18.3029,0.613601933440292
18.303,0.598142864439661
18.3031,0.613923997378036
18.3032,0.605550334999855
18.3033,0.601041439875719
18.3034,0.584938243016669
18.3035,0.536950716455119
18.3036,0.49604859651889
18.3037,0.479945399679751
18.3038,0.437432959938884
18.3039,0.374952555698577
18.304,0.36142587016158
18.3041,0.348543312474016
18.3042,0.360781742277995
18.3043,0.2960468895091
18.3044,0.25095793667781
18.3045,0.205546919231679
18.3046,0.186545145749809
18.3047,0.159169709122466
18.3048,0.12438680093929
18.3049,0.106029154727182
18.305,0.0838067406689177
18.3051,0.0815522928518301
18.3052,0.07060211770239
18.3053,0.0754330773349336
18.3054,0.0496679591492324
18.3055,0.0454811274096255
18.3056,0.08895976424097
18.3057,0.123098545070016
18.3058,0.215208837898615
18.3059,0.241940146035908
18.306,0.337915202355543
18.3061,0.416498803939866
18.3062,0.541459611565544
18.3063,0.594922225067038
18.3064,0.708610795674784
18.3065,0.81360364225365
18.3066,0.897662334852026
18.3067,0.977856262770424
18.3068,1.08413737730281
18.3069,1.20330105986649
18.307,1.35821386406105
18.3071,1.46256262638699
18.3072,1.57818364536054
18.3073,1.67898972802167
18.3074,1.73889366846323
18.3075,1.84485280139457
18.3076,1.93406460738207
18.3077,1.94147208642882
18.3078,1.99268031362484
18.3079,2.05902557059048
18.308,2.01103798105293
18.3081,1.98656109127617
18.3082,1.95596498047609
18.3083,1.86321046442402
18.3084,1.76498086989037
18.3085,1.67222638021225
18.3086,1.5775395170778
18.3087,1.46159643409127
18.3088,1.35499322342161
18.3089,1.17109465816267
18.309,1.03550571498829
18.3091,0.907646317684357
18.3092,0.752733555998584
18.3093,0.620365276135072
18.3094,0.466418714323361
18.3095,0.412634036672498
18.3096,0.359171422568673
18.3097,0.28123194793066
18.3098,0.244516657650619
18.3099,0.19846151218697
18.31,0.148219534382535
18.3101,0.0696359257743923
18.3102,-0.0327804216295755
18.3103,-0.142926312366805
18.3104,-0.222154064103551
18.3105,-0.312009935538877
18.3106,-0.431817776534368
18.3107,-0.413138058386528
18.3108,-0.380609584587658
18.3109,-0.332622036161318
18.311,-0.316518832514218
18.3111,-0.282380041618666
18.3112,-0.237613138233832
18.3113,-0.158063321448519
18.3114,-0.102024182327321
18.3115,-0.0991256062302781
18.3116,-0.110719910655533
18.3117,-0.111686102695457
18.3118,-0.106855142502766
18.3119,-0.168369370289433
18.312,-0.22344232027305
18.3121,-0.288499258772524
18.3122,-0.331333779860064
18.3123,-0.440513507528647
18.3124,-0.608308926889844
18.3125,-0.709437085915093
18.3126,-0.851145359239677
18.3127,-0.997684630304346
18.3128,-1.15066522866589
18.3129,-1.28883090291366
18.313,-1.42313184162993
18.3131,-1.49559639370168
18.3132,-1.62828707245875
18.3133,-1.71266806083242
18.3134,-1.76548670415742
18.3135,-1.79254015848244
18.3136,-1.82217013453008
18.3137,-1.85373250295535
18.3138,-1.86436064804317
18.3139,-1.84922359301253
18.314,-1.87692118355151
18.3141,-1.88014183375271
18.3142,-1.84922359301253
18.3143,-1.85180011297298
18.3144,-1.84729120305422
18.3145,-1.83988370830933
18.3146,-1.80767721116591
18.3147,-1.74712900411951
18.3148,-1.7149225149712
18.3149,-1.69753101195663
18.315,-1.67079962921508
18.3151,-1.68658080675618
18.3152,-1.69946340114177
18.3153,-1.6939882984756
18.3154,-1.70075166060389
18.3155,-1.69205590931777
18.3156,-1.6968868822304
18.3157,-1.72136381258355
18.3158,-1.72716098052729
18.3159,-1.6646803972786
18.316,-1.58867310319173
18.3161,-1.52941318886389
18.3162,-1.47562838258473
18.3163,-1.4025197045664
18.3164,-1.36966911308569
18.3165,-1.25533619042311
18.3166,-1.17771864437362
18.3167,-1.16741258107716
18.3168,-1.12522213662409
18.3169,-1.05243557631561
18.317,-0.998650823422646
18.3171,-0.990277149785596
18.3172,-0.922321572091173
18.3173,-0.844704073415533
18.3174,-0.734558095804477
18.3175,-0.664992224475852
18.3176,-0.603800028403187
18.3177,-0.52747082227989
18.3178,-0.457904969773385
18.3179,-0.401221686664575
18.318,-0.380287520496294
18.3181,-0.309433422990463
18.3182,-0.267887159026144
18.3183,-0.214424527116889
18.3184,-0.16257221780591
18.3185,-0.0968711581590421
18.3186,-0.0707839736002362
18.3187,-0.0173213499149883
18.3188,0.00168042552668828
18.3189,0.0268014164500904
18.319,0.0593298785111714
18.3191,0.0573974946428966
18.3192,0.0841288046425722
18.3193,0.107639474576881
18.3194,0.132438400104649
18.3195,0.172374331534461
18.3196,0.200393895928335
18.3197,0.218107413491995
18.3198,0.258365407542481
18.3199,0.237431250704811
18.32,0.230667907695183
18.3201,0.252568256432496
18.3202,0.247093169263128
18.3203,0.306352935789136
18.3204,0.322778196991437
18.3205,0.34789918458874
18.3206,0.328897411932278
18.3207,0.332440115315065
18.3208,0.344678545161036
18.3209,0.344356481218144
18.321,0.344034417275229
18.3211,0.349831568244306
18.3212,0.359493486510579
18.3213,0.333728371089907
18.3214,0.356916974974758
18.3215,0.338559330242215
18.3216,0.332762179258811
18.3217,0.341779969674195
18.3218,0.353696335553102
18.3219,0.339525522072049
18.322,0.329541539820274
18.3221,0.312794214700068
18.3222,0.294758633722092
18.3223,0.34789918458874
18.3224,0.364324445636713
18.3225,0.358849358626747
18.3226,0.330507731652087
18.3227,0.320201685434717
18.3228,0.350153632186824
18.3229,0.314726598371292
18.323,0.358205230742834
18.3231,0.370765724464592
18.3232,0.358205230742834
18.3233,0.377529067225607
18.3234,0.360137614394328
18.3235,0.367867148993016
18.3236,0.374630491757614
18.3237,0.346932992760661
18.3238,0.364002381695112
18.3239,0.372053980229237
18.324,0.339203458128794
18.3241,0.326965028267707
18.3242,0.369155404758355
18.3243,0.420685635143958
18.3244,0.393954328183605
18.3245,0.394920520003285
18.3246,0.401683862736995
18.3247,0.386546857561079
18.3248,0.379139386929403
18.3249,0.393310200303737
18.325,0.407158949706888
18.3251,0.387190985441655
18.3252,0.363680317753491
18.3253,0.342424097560317
18.3254,0.323100260935914
18.3255,0.342746161503345
18.3256,0.347255056703376
18.3257,0.311828022864103
18.3258,0.321489941213278
18.3259,0.36335825381185
18.326,0.304742616059732
18.3261,0.294436569775269
18.3262,0.285740843200203
18.3263,0.285418779252571
18.3264,0.293792441881539
18.3265,0.295080697668886
18.3266,0.319235493600531
18.3267,0.341779969674195
18.3268,0.373342235993577
18.3269,0.362069998045084
18.327,0.330185667708173
18.3271,0.270925901578052
18.3272,0.229057587928656
18.3273,0.171730203613626
18.3274,0.133082528036578
18.3275,0.0886377002681166
18.3276,0.0744668854094141
18.3277,0.0496679591492324
18.3278,0.0174615608943827
18.3279,0.00457900142186275
18.328,-0.0443747255177046
18.3281,-0.0395437655535325
18.3282,-0.0311701016520975
18.3283,-0.0198978618567629
18.3284,-0.00540498223881457
18.3285,-0.0585455415028328
18.3286,-0.00508291824879994
18.3287,-0.016355157937911
18.3288,0.0393619117724456
18.3289,0.0699579897504469
18.329,0.114724881900519
18.3291,0.127607440609063
18.3292,0.123742673004751
18.3293,0.0860611884833732
18.3294,0.0757551413099973
18.3295,0.0854170605366537
18.3296,0.126963312675497
18.3297,0.116657265711839
18.3298,0.0954010436869396
18.3299,0.0738227574587936
18.33,0.0625505182871009
18.3301,0.0770433972097055
18.3302,0.113436626025306
18.3303,0.140812063204896
18.3304,0.128251568542434
18.3305,0.125030928873634
18.3306,0.142422383028215
18.3307,0.143388574921645
18.3308,0.111504242210981
18.3309,0.0815522928518301
18.331,0.106351218697224
18.3311,0.116013137774932
18.3312,0.117301393648548
18.3313,0.0973334275166354
18.3314,0.0941127877994299
18.3315,0.114080753963012
18.3316,0.108605666486089
18.3317,0.0960451716303804
18.3318,0.0821964207998387
18.3319,0.137591423554741
18.332,0.109893922364324
18.3321,0.104418834876207
18.3322,0.122454417135086
18.3323,0.137269359589466
18.3324,0.160780028932772
18.3325,0.217141221627874
18.3326,0.279299564241922
18.3327,0.264806686541153
18.3328,0.30442055211377
18.3329,0.31762517387638
18.333,0.379461450870107
18.3331,0.384292409978516
18.3332,0.438399151753002
18.3333,0.431635809052029
18.3334,0.43936534356702
18.3335,0.4609436273897
18.3336,0.459333307702878
18.3337,0.410701653038054
18.3338,0.315370726261492
18.3339,0.302166104491271
18.334,0.317303109931473
18.3341,0.303132296329648
18.3342,0.215530901853586
18.3343,0.136303167693358
18.3344,0.13340459200247
18.3345,0.0261572884823775
18.3346,-0.0231185017899407
18.3347,-0.0675633335645668
18.3348,-0.073038421629505
18.3349,-0.112974358749771
18.335,-0.17481065085863
18.3351,-0.209593566526464
18.3352,-0.203796413844378
18.3353,-0.214102463076901
18.3354,-0.240511714656826
18.3355,-0.202830221733485
18.3356,-0.21603484731817
18.3357,-0.177065099065849
18.3358,-0.197677197155436
18.3359,-0.197999261190906
18.336,-0.179963675338402
18.3361,-0.166759050152399
18.3362,-0.188337340164757
18.3363,-0.16257221780591
18.3364,-0.195422748909599
18.3365,-0.134552647845527
18.3366,-0.164826665990725
18.3367,-0.18157399549281
18.3368,-0.178031291155933
18.3369,-0.18092986743079
18.337,-0.185438763872132
18.3371,-0.155808873275917
18.3372,-0.158385385473507
18.3373,-0.10621101447838
18.3374,-0.131654071677717
18.3375,-0.141960120303876
18.3376,-0.147435208670127
18.3377,-0.153876489131191
18.3378,-0.133264391770147
18.3379,-0.125534855344599
18.338,-0.161606025727954
18.3381,-0.174166522800188
18.3382,-0.167725242234367
18.3383,-0.161606025727954
18.3384,-0.121992151164776
18.3385,-0.113296422763543
18.3386,-0.113618486777392
18.3387,-0.0846327258364992
18.3388,-0.0495277494966369
18.3389,-0.0395437655535325
18.339,-0.0479174295013097
18.3391,-0.0482394935002359
18.3392,-0.015066901969395
18.3393,-0.0189316698781021
18.3394,0.0174615608943827
18.3395,0.0271234804338559
18.3396,0.0113423451573961
18.3397,0.0264793524662643
18.3398,0.0425825515841286
18.3399,0.0206822007469918
18.34,-0.0112021340701356
18.3401,-0.0327804216295755
18.3402,-0.0485615574992316
18.3403,-0.021508181822522
18.3404,-0.0176434139074792
18.3405,-0.015066901969395
18.3406,-0.000251958406288041
18.3407,0.00876583326141128
18.3408,0.012630601103889
18.3409,0.025513160514422
18.341,0.00490106540989871
18.3411,0.00457900142186275
18.3412,-0.0282715256968893
18.3413,0.00973202522287511
18.3414,-0.02215230980929
18.3415,0.00168042552668828
18.3416,0.0174615608943827
18.3417,-0.0124903900355098
18.3418,-0.0273053337130309
18.3419,-0.0331024856252741
18.342,-0.0524263254926235
18.3421,-0.0186096058853474
18.3422,-0.0289156536864642
18.3423,-0.0202199258497822
18.3424,-0.0202199258497822
18.3425,-0.0115241980613813
18.3426,-0.00121815037363734
18.3427,0.0348530160261583
18.3428,0.0232587126246629
18.3429,0.015851240965767
18.343,0.0174615608943827
18.3431,-0.0044387902689639
18.3432,-0.0231185017899407
18.3433,0.00393487344560102
18.3434,0.0184277528508115
18.3435,0.0335647600965065
18.3436,0.0174615608943827
18.3437,-0.00282847032049892
18.3438,-0.00733736618025697
18.3439,0.00973202522287511
18.344,0.0113423451573961
18.3441,0.00554519338578108
18.3442,0.0206822007469918
18.3443,0.0403281037165688
18.3444,0.00747757731191427
18.3445,-0.0144227739855308
18.3446,-0.0337466136168748
18.3447,-0.02215230980929
18.3448,-0.0395437655535325
18.3449,-0.0466291735063004
18.345,-0.0614441175165782
18.3451,-0.093006390045517
18.3452,-0.0694957175851029
18.3453,-0.0376113815721898
18.3454,-0.0244067577650737
18.3455,-0.0379334455689092
18.3456,-0.0311701016520975
18.3457,-0.0250508857530405
18.3458,-0.0392217015564709
18.3459,-0.0562910934961103
18.346,-0.0685295255745107
18.3461,-0.0643426935360899
18.3462,-0.0562910934961103
18.3463,-0.0417982135348853
18.3464,-0.0446967895158677
18.3465,-0.0559690294954325
18.3466,-0.0846327258364992
18.3467,-0.0421202775324964
18.3468,-0.0334245496210406
18.3469,-0.0492056854974321
18.347,-0.0791576377269151
18.3471,-0.077869381704217
18.3472,-0.0379334455689092
18.3473,-0.0424423415301764
18.3474,-0.0289156536864642
18.3475,-0.0463071095077217
18.3476,-0.0388996375594778
18.3477,-0.0186096058853474
18.3478,-0.0118462620526922
18.3479,-0.0327804216295755
18.348,-0.0424423415301764
18.3481,-0.0591896695053904
18.3482,-0.0353569335970648
18.3483,-0.0620882455204149
18.3484,-0.0643426935360899
18.3485,-0.0337466136168748
18.3486,-0.0273053337130309
18.3487,-0.0466291735063004
18.3488,-0.0852768538507934
18.3489,-0.0775473176987255
18.349,-0.074648741652588
18.3491,-0.0640206295336363
18.3492,-0.0859209818653837
18.3493,-0.102024182327321
18.3494,-0.10943165460338
18.3495,-0.126178983378318
18.3496,-0.113940550791319
18.3497,-0.0988035422198747
18.3498,-0.0872092378954544
18.3499,-0.0843106618294631
18.35,-0.0978373501891183
18.3501,-0.0891416219427897
18.3502,-0.0817341497758329
18.3503,-0.0656309495466201
18.3504,-0.0939725820728833
18.3505,-0.104600694418754
18.3506,-0.124890727311195
18.3507,-0.0978373501891183
18.3508,-0.0817341497758329
18.3509,-0.10782133453992
18.351,-0.098481478209547
18.3511,-0.114584678819405
18.3512,-0.117483254949637
18.3513,-0.133908519807677
18.3514,-0.125534855344599
18.3515,-0.131654071677717
18.3516,-0.106855142502766
18.3517,-0.102346246338484
18.3518,-0.126501047395296
18.3519,-0.104600694418754
18.352,-0.0917181340100781
18.3521,-0.0598337975082318
18.3522,-0.0891416219427897
18.3523,-0.0704619095963445
18.3524,-0.103634502383895
18.3525,-0.0965490941491676
18.3526,-0.0807679577569376
18.3527,-0.0643426935360899
18.3528,-0.0530704534925018
18.3529,-0.077869381704217
18.353,-0.0772252536933071
18.3531,-0.0704619095963445
18.3532,-0.0640206295336363
18.3533,-0.0875313019031576
18.3534,-0.0678853975678095
18.3535,-0.0830224058020578
18.3536,-0.0988035422198747
18.3537,-0.0601558615097589
18.3538,-0.0888195579347144
18.3539,-0.101380054305225
18.354,-0.111041974668764
18.3541,-0.0836665338156127
18.3542,-0.0952608381104234
18.3543,-0.0785135097154195
18.3544,-0.100413862272649
18.3545,-0.097193222168992
18.3546,-0.100413862272649
18.3547,-0.100091798261943
18.3548,-0.101380054305225
18.3549,-0.0833444698087983
18.355,-0.0846327258364992
18.3551,-0.111364038682072
18.3552,-0.0872092378954544
18.3553,-0.0756149336673107
18.3554,-0.0678853975678095
18.3555,-0.102024182327321
18.3556,-0.109109590590535
18.3557,-0.0852768538507934
18.3558,-0.0727163576251063
18.3559,-0.073038421629505
18.356,-0.0752928696623303
18.3561,-0.0791576377269151
18.3562,-0.0991256062302781
18.3563,-0.0926843260365449
18.3564,-0.0736825496385201
18.3565,-0.0781914457097817
18.3566,-0.0440526615196106
18.3567,-0.0633765015289436
18.3568,-0.0331024856252741
18.3569,-0.0926843260365449
18.357,-0.117483254949637
18.3571,-0.0846327258364992
18.3572,-0.0630544375267044
18.3573,-0.0672412695613961
18.3574,-0.0575793494995274
18.3575,-0.0308480376568047
18.3576,-0.0643426935360899
18.3577,-0.0572572854985672
18.3578,-0.0881754299187872
18.3579,-0.093006390045517
18.358,-0.0614441175165782
18.3581,-0.1216700871489
18.3582,-0.103312438372428
18.3583,-0.0627323735245365
18.3584,-0.0752928696623303
18.3585,-0.0810900217631625
18.3586,-0.0968711581590421
18.3587,-0.103312438372428
18.3588,-0.0759369976723641
18.3589,-0.0331024856252741
18.359,-0.0611220535147667
18.3591,-0.0305259736615794
18.3592,-0.0521042614927896
18.3593,-0.0791576377269151
18.3594,-0.0646647575386151
18.3595,-0.0991256062302781
18.3596,-0.0772252536933071
18.3597,-0.0820562137822786
18.3598,-0.0353569335970648
18.3599,-0.0256950137412746
18.36,-0.00733736618025697
18.3601,-0.0269832697185456
18.3602,-0.0334245496210406
18.3603,-0.0514601334933318
18.3604,-0.016355157937911
18.3605,-0.0134565820102259
18.3606,-0.0408320215424648
18.3607,-0.0298818456713312
18.3608,-0.0392217015564709
18.3609,-0.0260170777354919
18.361,-0.0627323735245365
18.3611,-0.11200816670892
18.3612,-0.0868871738878253
18.3613,-0.0775473176987255
18.3614,-0.0897857499591639
18.3615,-0.0604779255113571
18.3616,-0.0936505180636862
18.3617,-0.0901078139674629
18.3618,-0.074648741652588
18.3619,-0.0720722296165265
18.362,-0.0955829021199965
18.3621,-0.0933284540545641
18.3622,-0.108787526577766
18.3623,-0.0955829021199965
18.3624,-0.100413862272649
18.3625,-0.115550870862116
18.3626,-0.129721687569429
18.3627,-0.121992151164776
18.3628,-0.0933284540545641
18.3629,-0.097193222168992
18.363,-0.111364038682072
18.3631,-0.113940550791319
18.3632,-0.0859209818653837
18.3633,-0.068207461571124
18.3634,-0.077869381704217
18.3635,-0.0994476702407573
18.3636,-0.118771511009542
18.3637,-0.0884974939267136
18.3638,-0.1055668864543
18.3639,-0.118127382979433
18.364,-0.0894636859509395
18.3641,-0.0443747255177046
18.3642,-0.0678853975678095
18.3643,-0.0665971415552703
18.3644,-0.068207461571124
18.3645,-0.0833444698087983
18.3646,-0.0920401980188255
18.3647,-0.0865651098802706
18.3648,-0.0727163576251063
18.3649,-0.0656309495466201
18.365,-0.0675633335645668
18.3651,-0.0888195579347144
18.3652,-0.0607999895130263
18.3653,-0.0917181340100781
18.3654,-0.129721687569429
18.3655,-0.0884974939267136
18.3656,-0.0881754299187872
18.3657,-0.0640206295336363
18.3658,-0.077869381704217
18.3659,-0.0891416219427897
18.366,-0.119093575024713
18.3661,-0.134874711864572
18.3662,-0.134874711864572
18.3663,-0.116517062905526
18.3664,-0.0988035422198747
18.3665,-0.0740046136431367
18.3666,-0.0327804216295755
18.3667,-0.0901078139674629
18.3668,-0.0901078139674629
18.3669,-0.0598337975082318
18.367,-0.070139845592525
18.3671,-0.0775473176987255
18.3672,-0.074648741652588
18.3673,-0.0814120857694609
18.3674,-0.0981594141992948
18.3675,-0.112974358749771
18.3676,-0.117161190934855
18.3677,-0.0852768538507934
18.3678,-0.106855142502766
18.3679,-0.110397846642379
18.368,-0.0788355737211307
18.3681,-0.0988035422198747
18.3682,-0.103312438372428
18.3683,-0.0881754299187872
18.3684,-0.0588676055040761
18.3685,-0.0466291735063004
18.3686,-0.0485615574992316
18.3687,-0.0769031896879618
18.3688,-0.0711060376042002
18.3689,-0.0453409175124015
18.369,-0.0907519419842848
18.3691,-0.0836665338156127
18.3692,-0.102990374361037
18.3693,-0.0540366454928457
18.3694,-0.0913960700014056
18.3695,-0.0955829021199965
18.3696,-0.070139845592525
18.3697,-0.0765811256826896
18.3698,-0.093006390045517
18.3699,-0.101702118316235
18.37,-0.100413862272649
18.3701,-0.137773288039583
18.3702,-0.128111367481372
18.3703,-0.098481478209547
18.3704,-0.0733604856339762
18.3705,-0.0514601334933318
18.3706,-0.0881754299187872
18.3707,-0.0781914457097817
18.3708,-0.0949387741009256
18.3709,-0.0855989178580515
18.371,-0.082378277788798
18.3711,-0.073038421629505
18.3712,-0.0672412695613961
18.3713,-0.0607999895130263
18.3714,-0.0694957175851029
18.3715,-0.0662750775523151
18.3716,-0.0643426935360899
18.3717,-0.0868871738878253
18.3718,-0.113618486777392
18.3719,-0.10943165460338
18.372,-0.114262614805323
18.3721,-0.0659530135494317
18.3722,-0.102024182327321
18.3723,-0.0939725820728833
18.3724,-0.0962270301393685
18.3725,-0.0791576377269151
18.3726,-0.0839885978225009
18.3727,-0.0653088855438801
18.3728,-0.0720722296165265
18.3729,-0.1055668864543
18.373,-0.111364038682072
18.3731,-0.115872934876508
18.3732,-0.097193222168992
18.3733,-0.100413862272649
18.3734,-0.109109590590535
18.3735,-0.0862430458727901
18.3736,-0.102990374361037
18.3737,-0.107499270527459
18.3738,-0.108143398552459
18.3739,-0.12231421518073
18.374,-0.106855142502766
18.3741,-0.115872934876508
18.3742,-0.111041974668764
18.3743,-0.102990374361037
18.3744,-0.0942946460821556
18.3745,-0.108465462565074
18.3746,-0.0868871738878253
18.3747,-0.104600694418754
18.3748,-0.111686102695457
18.3749,-0.10105799029429
18.375,-0.0814120857694609
18.3751,-0.0791576377269151
18.3752,-0.10782133453992
18.3753,-0.10621101447838
18.3754,-0.126823111412353
18.3755,-0.112652294736077
18.3756,-0.120059767070696
18.3757,-0.115550870862116
18.3758,-0.0852768538507934
18.3759,-0.0923622620276477
18.376,-0.077869381704217
18.3761,-0.082378277788798
18.3762,-0.0562910934961103
18.3763,-0.0321362936383813
18.3764,-0.0166772219302043
18.3765,0.003290745469086
18.3766,0.00812170528678842
18.3767,0.0342088880614518
18.3768,0.0277676084012055
18.3769,-0.00926975012402786
18.377,-0.0459850455092123
18.3771,0.0132747290767615
18.3772,0.031954440183097
18.3773,0.00940996123578318
18.3774,0.00168042552668828
18.3775,0.0177836248799206
18.3776,0.0129526650903564
18.3777,0.0387177838094015
18.3778,0.00522312939787148
18.3779,-0.000896086384457026
18.378,0.0174615608943827
18.3781,0.019393944806686
18.3782,0.012630601103889
18.3783,0.015851240965767
18.3784,0.00586725737362754
18.3785,0.00522312939787148
18.3786,0.00425693743376353
18.3787,0.00747757731191427
18.3788,0.00457900142186275
18.3789,0.00200248951529486
18.379,-0.00926975012402786
18.3791,-0.0211861178292376
18.3792,-0.00862562214251167
18.3793,-0.00572704622889363
18.3794,-0.0256950137412746
18.3795,-0.0205419898428677
18.3796,0.00908789724862858
18.3797,0.0248690325462236
18.3798,0.0989437473732824
18.3799,0.112470434118369
18.38,0.155627005535857
18.3801,0.199105640100918
18.3802,0.234854739083947
18.3803,0.278011308448826
18.3804,0.303132296329648
18.3805,0.370121596582155
18.3806,0.425516594222838
18.3807,0.469639353695053
18.3808,0.501523683441606
18.3809,0.529543245916853
18.381,0.563359959250425
18.3811,0.590735393883783
18.3812,0.59653254475325
18.3813,0.561427575630609
18.3814,0.604584143187395
18.3815,0.574310133098992
18.3816,0.560783447757368
18.3817,0.543391995184372
18.3818,0.519237199950382
18.3819,0.478979207868969
18.382,0.456756796203517
18.3821,0.418431187572806
18.3822,0.353052207668517
18.3823,0.314404534426153
18.3824,0.292826250040729
18.3825,0.310539767082448
18.3826,0.286062907147805
18.3827,0.236465058847252
18.3828,0.208445494835404
18.3829,0.169475755889341
18.383,0.100554067228632
18.3831,0.0863832524566528
18.3832,0.0171394969087831
18.3833,-0.02215230980929
18.3834,-0.0901078139674629
18.3835,-0.144536632473307
18.3836,-0.154842681203183
18.3837,-0.218289295603736
18.3838,-0.265954774695243
18.3839,-0.315552640303539
18.384,-0.387050866438001
18.3841,-0.376422751408459
18.3842,-0.442123828092464
18.3843,-0.470787534622272
18.3844,-0.461447675087763
18.3845,-0.474974368239528
18.3846,-0.456616713298999
18.3847,-0.467888957514561
18.3848,-0.461125610967678
18.3849,-0.465312444538095
18.385,-0.411527737874525
18.3851,-0.392848020141043
18.3852,-0.338741253615001
18.3853,-0.242766162991013
18.3854,-0.17770922712582
18.3855,-0.149045528782324
18.3856,-0.0852768538507934
18.3857,0.0203601367620074
18.3858,0.0838067406689177
18.3859,0.189121657416628
18.386,0.220683925128
18.3861,0.295080697668886
18.3862,0.336949010525362
18.3863,0.378495259047939
18.3864,0.422940082714463
18.3865,0.46287601101361
18.3866,0.50410019493429
18.3867,0.526644670488848
18.3868,0.531475629535517
18.3869,0.492505893215333
18.387,0.437432959938884
18.3871,0.413278164550533
18.3872,0.391377816663735
18.3873,0.338559330242215
18.3874,0.358527294684801
18.3875,0.363036189870189
18.3876,0.395564647882989
18.3877,0.392988136363778
18.3878,0.414566420306433
18.3879,0.404582438192189
18.388,0.412634036672498
18.3881,0.377851131166403
18.3882,0.397497031521716
18.3883,0.365290637461397
18.3884,0.346610928817924
18.3885,0.367223021110229
18.3886,0.36593476534442
18.3887,0.351119824014249
18.3888,0.325032644602255
18.3889,0.338881394185516
18.389,0.35337427161082
18.3891,0.343390289389332
18.3892,0.335660754751461
18.3893,0.292826250040729
18.3894,0.264806686541153
18.3895,0.246449041360206
18.3896,0.214242646033474
18.3897,0.20876755879118
18.3898,0.153694621759047
18.3899,0.11182630618016
18.39,0.0612622623774065
18.3901,0.0155291769798583
18.3902,0.0161733049516138
18.3903,-0.00250640633099848
18.3904,-0.0282715256968893
18.3905,-0.038255509565697
18.3906,-0.0933284540545641
18.3907,-0.165148730017461
18.3908,-0.209593566526464
18.3909,-0.265632710640428
18.391,-0.339385381770211
18.3911,-0.417324891731027
18.3912,-0.479805330130994
18.3913,-0.576424573875796
18.3914,-0.623768007619997
18.3915,-0.712979792382574
18.3916,-0.799937138748617
18.3917,-0.881741467817434
18.3918,-0.993819857847679
18.3919,-1.11169542996989
18.392,-1.20638238402721
18.3921,-1.25436999682826
18.3922,-1.32812278020149
18.3923,-1.37288975920348
18.3924,-1.41604641940629
18.3925,-1.46854295950862
18.3926,-1.50139355839456
18.3927,-1.57546844762995
18.3928,-1.61701480438439
18.3929,-1.66629072146316
18.393,-1.65598464679595
18.3931,-1.6997854660069
18.3932,-1.75389236718743
18.3933,-1.78094582067449
18.3934,-1.79930352237087
18.3935,-1.76645289892105
18.3936,-1.81283025051885
18.3937,-1.78287821028407
18.3938,-1.7596895356278
18.3939,-1.76001160054377
18.394,-1.72587272097664
18.3941,-1.67917331517783
18.3942,-1.63601662789348
18.3943,-1.59414820440384
18.3944,-1.57192573523471
18.3945,-1.51137756444028
18.3946,-1.43891300971924
18.3947,-1.39446808878519
18.3948,-1.32876690936489
18.3949,-1.2753041918177
18.395,-1.24213154479373
18.3951,-1.16548019423239
18.3952,-1.13359581234779
18.3953,-1.06757260352862
18.3954,-0.990921278522509
18.3955,-0.928118730069229
18.3956,-0.868214766995966
18.3957,-0.793817917705734
18.3958,-0.7226417192042
18.3959,-0.653397913250531
18.396,-0.611529568682459
18.3961,-0.512655871724747
18.3962,-0.498485049703086
18.3963,-0.44824304626168
18.3964,-0.39188182785471
18.3965,-0.295584668153011
18.3966,-0.22247612814579
18.3967,-0.19316830066804
18.3968,-0.0965490941491676
18.3969,0.00779964129938278
18.397,0.0857391245100402
18.3971,0.20812343087959
18.3972,0.235176803036679
18.3973,0.265128750490749
18.3974,0.292826250040729
18.3975,0.290893866358338
18.3976,0.305386743951575
18.3977,0.301521976598882
18.3978,0.327609156155994
18.3979,0.335660754751461
18.398,0.29830133713528
18.3981,0.310539767082448
18.3982,0.30957357524593
18.3983,0.327931220100102
18.3984,0.300877848706383
18.3985,0.35466252737982
18.3986,0.312794214700068
18.3987,0.256433023840342
18.3988,0.305708807897456
18.3989,0.314726598371292
18.399,0.278011308448826
18.3991,0.247737297165914
18.3992,0.262552238893087
18.3993,0.266417006288813
18.3994,0.257399215691559
18.3995,0.273824477117898
18.3996,0.290893866358338
18.3997,0.260297791243443
18.3998,0.267705262086368
18.3999,0.265450814440312
18.4,0.330353624093526
18.4001,0.314250426866341
18.4002,0.275924817195092
18.4003,0.286230863533158
18.4004,0.239209526852058
18.4005,0.215698858238939
18.4006,0.239209526852058
18.4007,0.23727714313768
18.4008,0.210867898910374
18.4009,0.233734439658016
18.401,0.237599207090164
18.4011,0.2350226954693
18.4012,0.207969323309091
18.4013,0.245972869842501
18.4014,0.260787811578842
18.4015,0.249837637258811
18.4016,0.240497782660942
18.4017,0.202172172097067
18.4018,0.20442661979214
18.4019,0.203460427923059
18.402,0.200883916270443
18.4021,0.207003131441299
18.4022,0.175440863561446
18.4023,0.176084991481338
18.4024,0.181238014834359
18.4025,0.167389264548283
18.4026,0.200883916270443
18.4027,0.222140137330461
18.4028,0.20442661979214
18.4029,0.187357230052114
18.403,0.184458654424525
18.4031,0.17737324732061
18.4032,0.161270049280053
18.4033,0.177051183360856
18.4034,0.201850108140471
18.4035,0.206036939573157
18.4036,0.194764701085273
18.4037,0.206359003529244
18.4038,0.215376794283968
18.4039,0.163846560973878
18.404,0.196375020872247
18.4041,0.159015601545624
18.4042,0.153218450218435
18.4043,0.192188189424013
18.4044,0.196697084829521
18.4045,0.184780718383312
18.4046,0.184136590465696
18.4047,0.226326968731974
18.4048,0.223106329192902
18.4049,0.208935515176533
18.405,0.224716648962897
18.4051,0.226004904778232
18.4052,0.205714875617032
18.4053,0.19122199755037
18.4054,0.151608130402727
18.4055,0.181560078793564
18.4056,0.165778944742394
18.4057,0.156761153809006
18.4058,0.168677520392208
18.4059,0.163524497012305
18.406,0.133250484421931
18.4061,0.163846560973878
18.4062,0.170931968117402
18.4063,0.161270049280053
18.4064,0.174474671681288
18.4065,0.208613451220758
18.4066,0.225682840824453
18.4067,0.238565398947406
18.4068,0.226971096639348
18.4069,0.230191736174033
18.407,0.19830740461529
18.4071,0.206681067485291
18.4072,0.179305631078245
18.4073,0.197663276701102
18.4074,0.174474671681288
18.4075,0.216987114058445
18.4076,0.23727714313768
18.4077,0.273670369554504
18.4078,0.277213072989039
18.4079,0.247905253551268
18.408,0.229225544314009
18.4081,0.238887462899749
18.4082,0.23985365475657
18.4083,0.20925757913227
18.4084,0.184458654424525
18.4085,0.178339439199618
18.4086,0.182526270670927
18.4087,0.154506706070185
18.4088,0.159337665507819
18.4089,0.121656181617675
18.409,0.149031618695222
18.4091,0.0733465858933066
18.4092,0.0140868134347385
18.4093,-0.0300359532810684
18.4094,-0.0519363051074363
18.4095,-0.0799558733593551
18.4096,-0.0992797138554041
18.4097,-0.13760533165423
18.4098,-0.152098212627498
18.4099,-0.203950521496166
18.41,-0.197509240770083
18.4101,-0.218443403259538
18.4102,-0.236801053755498
18.4103,-0.222308171760437
18.4104,-0.200729881128726
18.4105,-0.202018137274644
18.4106,-0.195576856559103
18.4107,-0.183016359264005
18.4108,-0.184304615390788
18.4109,-0.139215651754269
18.411,-0.145012804131122
18.4111,-0.13760533165423
18.4112,-0.129231667166305
18.4113,-0.127299283061351
18.4114,-0.115382914476763
18.4115,-0.112806402364418
18.4116,-0.0986355858345215
18.4117,-0.0979914578139416
18.4118,-0.0281035693115361
18.4119,0.0185957092361647
18.412,-0.00298257792471027
18.4121,-0.00330464191433903
18.4122,0.00442489381911674
18.4123,0.00828966167214163
18.4124,0.00152631792337132
18.4125,0.022460477056348
18.4126,0.0530565553276292
18.4127,0.0984675758161327
18.4128,0.0707700740877432
18.4129,0.0472594036959894
18.413,0.0456490837949787
18.4131,0.0495138515549638
18.4132,0.0675494343258092
18.4133,0.0543448112432362
18.4134,0.0330885885166754
18.4135,0.0453270198146018
18.4136,0.0520903633903209
18.4137,0.0878394647345906
18.4138,0.11779141400218
18.4139,0.126165077160138
18.414,0.0849408889750734
18.4141,0.0807540573147653
18.4142,0.0598198988743719
18.4143,0.0784996094938945
18.4144,0.0920262963796192
18.4145,0.0646508585353082
18.4146,0.107163303022507
18.4147,0.0949248721286427
18.4148,0.104264727291212
18.4149,0.106519175082577
18.415,0.0820423132112146
18.4151,0.085585016922007
18.4152,0.102976471409304
18.4153,0.0975013839019886
18.4154,0.09106010446233
18.4155,0.0878394647345906
18.4156,0.119723797810817
18.4157,0.0975013839019886
18.4158,0.112638390503722
18.4159,0.134538740285214
18.416,0.12326650145537
18.4161,0.137115252009498
18.4162,0.0839746970542709
18.4163,0.108773622871443
18.4164,0.114570774317144
18.4165,0.100399959643019
18.4166,0.103298535379858
18.4167,0.0991117037586356
18.4168,0.0984675758161327
18.4169,0.0784996094938945
18.417,0.0414622520455148
18.4171,0.021172221117268
18.4172,-0.00459289787349653
18.4173,-0.00394876989378919
18.4174,0.0214942851021298
18.4175,0.0353430363937753
18.4176,0.0411401880643761
18.4177,0.00635727774676412
18.4178,0.0237487329944501
18.4179,0.0189177732215177
18.418,0.00474695780721596
18.4181,0.0359871643581243
18.4182,0.0588537069406601
18.4183,0.0604640268298966
18.4184,0.0765672256453138
18.4185,0.0495138515549638
18.4186,0.0698038821597455
18.4187,0.0469373397159037
18.4188,0.0446828918536727
18.4189,0.0565992590933449
18.419,0.0681935622786403
18.4191,0.0585316429626427
18.4192,0.0868732728152322
18.4193,0.118757605906722
18.4194,0.141946211484381
18.4195,0.159015601545624
18.4196,0.195730892957578
18.4197,0.257889236027252
18.4198,0.280755776419888
18.4199,0.286552927480731
18.42,0.390257517288753
18.4201,0.367390977495582
18.4202,0.419565335774447
18.4203,0.434058213004937
18.4204,0.43534646875757
18.4205,0.425362486669689
18.4206,0.457568880463763
18.4207,0.454026177151411
18.4208,0.405394522456307
18.4209,0.423108039099816
18.421,0.367713041436985
18.4211,0.339049350570869
18.4212,0.293638334319984
18.4213,0.250803829112126
18.4214,0.264652578976879
18.4215,0.219241561741131
18.4216,0.143234467342568
18.4217,0.11779141400218
18.4218,0.129707780793951
18.4219,0.11328251844173
18.422,0.0752789697451684
18.4221,0.0859070808953935
18.4222,0.0540227472644205
18.4223,0.0353430363937753
18.4224,0.0308341406366436
18.4225,-0.029391825290955
18.4226,-0.053224561107193
18.4227,-0.0738366572577835
18.4228,-0.0989576498449249
18.4229,-0.0902619215904833
18.423,-0.135350883517549
18.4231,-0.162082197394488
18.4232,-0.200407817092467
18.4233,-0.234546605432968
18.4234,-0.290263686758922
18.4235,-0.289941622696717
18.4236,-0.317961196482034
18.4237,-0.369491449157151
18.4238,-0.386560845959085
18.4239,-0.398799281592386
18.424,-0.43132775603974
18.4241,-0.442922064046804
18.4242,-0.436158717691023
18.4243,-0.485756592180764
18.4244,-0.503470119479532
18.4245,-0.473196091229739
18.4246,-0.484790399793344
18.4247,-0.496384708515235
18.4248,-0.489943425872313
18.4249,-0.495096451982708
18.425,-0.468043065251806
18.4251,-0.466432744640015
18.4252,-0.463212103425424
18.4253,-0.461923846942937
18.4254,-0.499605349855206
18.4255,-0.497350900915928
18.4256,-0.480925630254644
18.4257,-0.485112463922362
18.4258,-0.520539518868796
18.4259,-0.488333105219267
18.426,-0.452583987501875
18.4261,-0.447430961645992
18.4262,-0.416512807137576
18.4263,-0.428429179061475
18.4264,-0.393002127851356
18.4265,-0.380441628202305
18.4266,-0.371101769597082
18.4267,-0.342438066167192
18.4268,-0.342760130246002
18.4269,-0.342760130246002
18.427,-0.334064400154869
18.4271,-0.34791315552128
18.4272,-0.321503901267996
18.4273,-0.287687174264042
18.4274,-0.237767245895109
18.4275,-0.216833083054663
18.4276,-0.197831304805553
18.4277,-0.187847319746544
18.4278,-0.16401458155215
18.4279,-0.159183621163616
18.428,-0.15660710896404
18.4281,-0.118281490609095
18.4282,-0.138249459694004
18.4283,-0.112484338350724
18.4284,-0.0806000013715844
18.4285,-0.0625644171391833
18.4286,-0.058055521116307
18.4287,-0.0860750894874369
18.4288,-0.0735145932531669
18.4289,-0.0831765134234451
18.429,-0.087685409525582
18.4291,-0.0860750894874369
18.4292,-0.112162274337107
18.4293,-0.0902619215904833
18.4294,-0.0648188651558586
18.4295,-0.0793117453474196
18.4296,-0.100245905887296
18.4297,-0.124400706909258
18.4298,-0.104754802045173
18.4299,-0.093482561678333
18.43,-0.0525804331071744
18.4301,-0.0448508971287468
18.4302,-0.0403420011597755
18.4303,-0.0110341776847824
18.4304,0.00217044590064807
18.4305,-0.00394876989378919
18.4306,-0.0284256333062899
18.4307,-0.000728129999103815
18.4308,-0.0277815053168495
18.4309,-0.0181195855073054
18.431,0.0131206214757096
18.4311,-0.0194078414784567
18.4312,-0.0136106896165755
18.4313,0.00764553369726748
18.4314,0.00281457387767061
18.4315,-0.00684734580450189
18.4316,-0.0400199371625081
18.4317,-0.0670733131760429
18.4318,-0.0284256333062899
18.4319,-0.0252049933617709
18.432,-0.0184416494999941
18.4321,-0.0281035693115361
18.4322,-0.0264932493387742
18.4323,-0.0223064174174205
18.4324,-0.029391825290955
18.4325,-0.0477494731159565
18.4326,-0.0564452011115054
18.4327,-0.0364772331970881
18.4328,-0.0306800812714515
18.4329,-0.02745944132223
18.433,-0.0245608653736705
18.4331,-0.00620321782389201
18.4332,0.00957791762113639
18.4333,-0.0467832811195953
18.4334,-0.02745944132223
18.4335,-0.0313242092621046
18.4336,-0.00362670590403198
18.4337,-0.0303580172762262
18.4338,-0.0342227852233937
18.4339,-0.0161872015525577
18.434,-0.0264932493387742
18.4341,-0.00459289787349653
18.4342,0.0240707969788231
18.4343,-0.00201638595620893
18.4344,-0.0177975215146827
18.4345,-0.029391825290955
18.4346,-0.00201638595620893
18.4347,0.0276135008029142
18.4348,0.0301900126703798
18.4349,0.00345870185443922
18.435,0.00345870185443922
18.4351,0.0105441095822243
18.4352,0.0134426854621148
18.4353,-0.0132886256248727
18.4354,0.00828966167214163
18.4355,-0.00459289787349653
18.4356,-0.0148989455840417
18.4357,-0.0168313295372102
18.4358,0.0198839651772078
18.4359,-0.0558010731100793
18.436,-0.0596658411228786
18.4361,-0.0609540971294135
18.4362,-0.0409861291545163
18.4363,-0.0161872015525577
18.4364,-0.0235946733920207
18.4365,-0.0332565932356874
18.4366,-0.0281035693115361
18.4367,-0.0261711853444229
18.4368,-0.053224561107193
18.4369,-0.0129665616332353
18.437,-0.0161872015525577
18.4371,-0.0525804331071744
18.4372,-0.0351889772117115
18.4373,-0.0519363051074363
18.4374,-0.0235946733920207
18.4375,-0.0477494731159565
18.4376,-0.0661071211669619
18.4377,-0.0590217131200372
18.4378,-0.053224561107193
18.4379,-0.0374434251868366
18.438,-0.0155430735681684
18.4381,0.0250369889315769
18.4382,0.0250369889315769
18.4383,0.00957791762113639
18.4384,-0.0216622894305196
18.4385,-0.020051969464429
18.4386,-0.0277815053168495
18.4387,-0.0132886256248727
18.4388,-0.0094238577295301
18.4389,-0.0358331052042636
18.439,-0.0512921771079786
18.4391,-0.0487156651129438
18.4392,-0.0628864811413511
18.4393,-0.0554790091094721
18.4394,-0.0419523211471432
18.4395,-0.0464612171209472
18.4396,-0.0432405771382767
18.4397,-0.0271373773276776
18.4398,-0.0351889772117115
18.4399,0.00732346970973609
18.44,-0.0181195855073054
18.4401,-0.0516142411076725
18.4402,-0.0448508971287468
18.4403,-0.0390537451711177
18.4404,-0.0525804331071744
18.4405,-0.053224561107193
18.4406,-0.0586996491187229
18.4407,-0.0699718892071718
18.4408,-0.0477494731159565
18.4409,-0.0590217131200372
18.441,-0.053224561107193
18.4411,-0.0252049933617709
18.4412,-0.00910179373867465
18.4413,0.0334106524992975
18.4414,0.0140868134347385
18.4415,0.00152631792337132
18.4416,-0.00201638595620893
18.4417,-0.000728129999103815
18.4418,-0.0348669132155376
18.4419,-0.0413081931519898
18.442,-0.0268153133331924
18.4421,-0.0181195855073054
18.4422,-0.0187637134927489
18.4423,-0.0355110412079535
18.4424,-0.0313242092621046
18.4425,-0.0409861291545163
18.4426,-0.0223064174174205
18.4427,-0.0609540971294135
18.4428,-0.0599879051244057
18.4429,-0.0744807852672348
18.443,-0.0719042732311733
18.4431,-0.100245905887296
18.4432,-0.0770572973079539
18.4433,-0.0261711853444229
18.4434,-0.0384096171771999
18.4435,-0.0641747371507367
18.4436,-0.0902619215904833
18.4437,-0.057089329113214
18.4438,-0.0873633455178044
18.4439,-0.0780234893244285
18.444,-0.0715822092269921
18.4441,-0.103466545998541
18.4442,-0.0577334571152052
18.4443,-0.0667512491729441
18.4444,-0.0841427054441099
18.4445,-0.102822417975684
18.4446,-0.0741587212624727
18.4447,-0.0619202891350616
18.4448,-0.0789896813415619
18.4449,-0.0429185131403899
18.445,-0.0168313295372102
18.4451,-0.0203740334575145
18.4452,-0.0535466251073076
18.4453,-0.0477494731159565
18.4454,-0.0715822092269921
18.4455,-0.0702939532109913
18.4456,-0.0451729611270483
18.4457,-0.0558010731100793
18.4458,-0.0342227852233937
18.4459,-0.0519363051074363
18.446,-0.0667512491729441
18.4461,-0.0271373773276776
18.4462,-0.0451729611270483
18.4463,-0.0661071211669619
18.4464,-0.0793117453474196
18.4465,-0.070616017214883
18.4466,-0.0796338093533507
18.4467,-0.0664291851699171
18.4468,-0.0445288331305145
18.4469,-0.0960590737540153
18.447,-0.057089329113214
18.4471,-0.087685409525582
18.4472,-0.0760911052921371
18.4473,-0.0535466251073076
18.4474,-0.0310021452667443
18.4475,-0.037765489183556
18.4476,-0.0445288331305145
18.4477,-0.073192529248623
18.4478,-0.0628864811413511
18.4479,-0.045495025125419
18.448,-0.0313242092621046
18.4481,-0.0490377291120789
18.4482,-0.0715822092269921
18.4483,-0.0809220653778093
18.4484,-0.0719042732311733
18.4485,-0.0677174411824563
18.4486,-0.0248829293676873
18.4487,-0.088007473533434
18.4488,-0.108297506179721
18.4489,-0.0841427054441099
18.449,-0.10958576223095
18.4491,-0.0873633455178044
18.4492,-0.0973473297936642
18.4493,-0.0702939532109913
18.4494,-0.0693277611997496
18.4495,-0.063530609145901
18.4496,-0.0503259851093167
18.4497,-0.0419523211471432
18.4498,-0.0184416494999941
18.4499,-0.0264932493387742
18.45,-0.0667512491729441
18.4501,-0.0583775851174795
18.4502,-0.0358331052042636
18.4503,-0.0493597931112837
18.4504,-0.0815661933904797
18.4505,-0.0818882573969254
18.4506,-0.11409465841997
18.4507,-0.0902619215904833
18.4508,-0.116993234549502
18.4509,-0.0509701131083547
18.451,-0.0641747371507367
18.4511,-0.0625644171391833
18.4512,-0.0638526731482831
18.4513,-0.0773793613133723
18.4514,-0.0590217131200372
18.4515,-0.0777014253188638
18.4516,-0.0828544494167046
18.4517,-0.0918722416334723
18.4518,-0.0822103214034448
18.4519,-0.0773793613133723
18.452,-0.0593437771214224
18.4521,-0.0748028492720695
18.4522,-0.0429185131403899
18.4523,-0.0519363051074363
18.4524,-0.0529024971071486
18.4525,-0.0313242092621046
18.4526,-0.080277937365433
18.4527,-0.0625644171391833
18.4528,-0.0545128171080732
18.4529,-0.0493597931112837
18.453,-0.0300359532810684
18.4531,-0.0538686891074925
18.4532,-0.0316462732575326
18.4533,-0.0548348811084691
18.4534,-0.00716940979490376
18.4535,-0.0586996491187229
18.4536,-0.0235946733920207
18.4537,-0.0461391531223684
18.4538,-0.0625644171391833
18.4539,-0.0577334571152052
18.454,-0.087685409525582
18.4541,-0.0696498252034246
18.4542,-0.0992797138554041
18.4543,-0.0702939532109913
18.4544,-0.0490377291120789
18.4545,-0.0696498252034246
18.4546,-0.0925163696511917
18.4547,-0.113772594405966
18.4548,-0.0558010731100793
18.4549,-0.028747697301111
18.455,-0.0184416494999941
18.4551,-0.0126444976416632
18.4552,-0.0261711853444229
18.4553,0.0688376902312489
18.4554,0.0311562046196853
18.4555,0.0240707969788231
18.4556,0.0192398372068092
18.4557,0.038241612231474
18.4558,0.00828966167214163
18.4559,-0.00459289787349653
18.456,0.0166633253227519
18.4561,-0.0165092655448511
18.4562,-0.0490377291120789
18.4563,-0.0696498252034246
18.4564,-0.0912281136160523
18.4565,-0.0603099691260039
18.4566,-0.0522583691072703
18.4567,-0.0838206414371477
18.4568,-0.0889736655574365
18.4569,-0.0947708177155724
18.457,-0.0786676173357775
18.4571,-0.0970252657836388
18.4572,-0.0809220653778093
18.4573,-0.0954149457346433
18.4574,-0.0793117453474196
18.4575,-0.0760911052921371
18.4576,-0.0651409291585269
18.4577,-0.088007473533434
18.4578,-0.0815661933904797
18.4579,-0.0773793613133723
18.458,-0.0783455533300663
18.4581,-0.084464769451146
18.4582,-0.0435626411362325
18.4583,-0.0529024971071486
18.4584,-0.0432405771382767
18.4585,-0.0545128171080732
18.4586,-0.0818882573969254
18.4587,-0.0754469772819575
18.4588,-0.0586996491187229
18.4589,-0.0458170891238591
18.459,-0.0483936011138784
18.4591,-0.0857530254800305
18.4592,-0.0941266896968024
18.4593,-0.0825323854100378
18.4594,-0.0461391531223684
18.4595,-0.0661071211669619
18.4596,-0.0973473297936642
18.4597,-0.0799558733593551
18.4598,-0.0925163696511917
18.4599,-0.0828544494167046
18.46,-0.0970252657836388
18.4601,-0.124078642892754
18.4602,-0.114416722434052
18.4603,-0.115704978491155
18.4604,-0.119891810685343
18.4605,-0.123756578876328
18.4606,-0.0976693938037651
18.4607,-0.0757690412870109
18.4608,-0.0715822092269921
18.4609,-0.0525804331071744
18.461,-0.0992797138554041
18.4611,-0.0825323854100378
18.4612,-0.0719042732311733
18.4613,-0.088007473533434
18.4614,-0.113772594405966
18.4615,-0.136317075575645
18.4616,-0.105076866057021
18.4617,-0.0815661933904797
18.4618,-0.108941634205181
18.4619,-0.0921943056422945
18.462,-0.105720994080948
18.4621,-0.0902619215904833
18.4622,-0.125366898959245
18.4623,-0.135672947536834
18.4624,-0.155962980914973
18.4625,-0.155962980914973
18.4626,-0.126333091009943
18.4627,-0.100567969898079
18.4628,-0.105398930068947
18.4629,-0.11892561863936
18.463,-0.112484338350724
18.4631,-0.088007473533434
18.4632,-0.0661071211669619
18.4633,-0.0667512491729441
18.4634,-0.0558010731100793
18.4635,-0.0812441293841077
18.4636,-0.0512921771079786
18.4637,-0.0367992971936027
18.4638,-0.020051969464429
18.4639,-0.0371213611901855
18.464,-0.017475457522126
18.4641,-0.0129665616332353
18.4642,-0.0152210095760722
18.4643,-0.0223064174174205
18.4644,-0.0561231371107571
18.4645,-0.0851088974654401
18.4646,-0.129231667166305
18.4647,-0.11795942659408
18.4648,-0.0918722416334723
18.4649,-0.105720994080948
18.465,-0.0799558733593551
18.4651,-0.0719042732311733
18.4652,-0.0838206414371477
18.4653,-0.0825323854100378
18.4654,-0.0512921771079786
18.4655,-0.0525804331071744
18.4656,-0.0857530254800305
18.4657,-0.121502130763547
18.4658,-0.088007473533434
18.4659,-0.0992797138554041
18.466,-0.127943411096019
18.4661,-0.0748028492720695
18.4662,-0.0780234893244285
18.4663,-0.0644968011532619
18.4664,-0.0632085451435904
18.4665,-0.0371213611901855
18.4666,-0.0712601452228833
18.4667,-0.0422743851448232
18.4668,-0.0715822092269921
18.4669,-0.0429185131403899
18.467,-0.0355110412079535
18.4671,-0.0461391531223684
18.4672,-0.0667512491729441
18.4673,-0.101212097919871
18.4674,-0.12053593871639
18.4675,-0.125044834942504
18.4676,-0.136317075575645
18.4677,-0.125044834942504
18.4678,-0.113772594405966
18.4679,-0.11312846637819
18.468,-0.116349106520173
18.4681,-0.134062627441209
18.4682,-0.116027042505625
18.4683,-0.0796338093533507
18.4684,-0.0657850571640785
18.4685,-0.0825323854100378
18.4686,-0.0976693938037651
18.4687,-0.087685409525582
18.4688,-0.115704978491155
18.4689,-0.0921943056422945
18.469,-0.113450530392039
18.4691,-0.116349106520173
18.4692,-0.0931604976692109
18.4693,-0.0741587212624727
18.4694,-0.0799558733593551
18.4695,-0.103788610010085
18.4696,-0.100567969898079
18.4697,-0.117637362579143
18.4698,-0.120213874700827
18.4699,-0.135672947536834
18.47,-0.106687186117413
18.4701,-0.0770572973079539
18.4702,-0.099601777865959
18.4703,-0.0851088974654401
18.4704,-0.0983135218241938
18.4705,-0.110874018283411
18.4706,-0.105076866057021
18.4707,-0.112484338350724
18.4708,-0.108619570192413
18.4709,-0.100890033908937
18.471,-0.103466545998541
18.4711,-0.0892957295655863
18.4712,-0.0973473297936642
18.4713,-0.0915501776247249
18.4714,-0.110874018283411
18.4715,-0.0902619215904833
18.4716,-0.0551569451089353
18.4717,-0.0625644171391833
18.4718,-0.0702939532109913
18.4719,-0.0773793613133723
18.472,-0.093482561678333
18.4721,-0.0902619215904833
18.4722,-0.0625644171391833
18.4723,-0.0548348811084691
18.4724,-0.102500353964369
18.4725,-0.106043058093027
18.4726,-0.129231667166305
18.4727,-0.105076866057021
18.4728,-0.130519923237862
18.4729,-0.126011026992965
18.473,-0.0863971534949174
18.4731,-0.0603099691260039
18.4732,-0.0638526731482831
18.4733,-0.0867192175024721
18.4734,-0.118603554624189
18.4735,-0.100567969898079
18.4736,-0.0892957295655863
18.4737,-0.0960590737540153
18.4738,-0.108619570192413
18.4739,-0.0847868334582561
18.474,-0.0606320331276731
18.4741,-0.028747697301111
18.4742,-0.0596658411228786
18.4743,-0.0654629931612669
18.4744,-0.0989576498449249
18.4745,-0.0944487537061498
18.4746,-0.106687186117413
18.4747,-0.0886516015493612
18.4748,-0.0603099691260039
18.4749,-0.108941634205181
18.475,-0.0909060496074546
18.4751,-0.0918722416334723
18.4752,-0.0902619215904833
18.4753,-0.0764131692973364
18.4754,-0.0751249132769771
18.4755,-0.0686836331926161
18.4756,-0.0503259851093167
18.4757,-0.0300359532810684
18.4758,-0.110874018283411
18.4759,-0.0777014253188638
18.476,-0.073192529248623
18.4761,-0.119891810685343
18.4762,-0.10217828995313
18.4763,-0.0738366572577835
18.4764,-0.0632085451435904
18.4765,-0.0741587212624727
18.4766,-0.0487156651129438
18.4767,-0.029713889285978
18.4768,-0.0728704652441517
18.4769,-0.0928384336601638
18.477,-0.070616017214883
18.4771,-0.045495025125419
18.4772,-0.0767352333026086
18.4773,-0.0593437771214224
18.4774,-0.0467832811195953
18.4775,-0.0583775851174795
18.4776,-0.0712601452228833
18.4777,-0.0773793613133723
18.4778,-0.0938046256875301
18.4779,-0.109907826243949
18.478,-0.0796338093533507
18.4781,-0.0667512491729441
18.4782,-0.0686836331926161
18.4783,-0.084464769451146
18.4784,-0.0812441293841077
18.4785,-0.0574113931141742
18.4786,-0.0664291851699171
18.4787,-0.0683615691891575
18.4788,-0.0667512491729441
18.4789,-0.0912281136160523
18.479,-0.105398930068947
18.4791,-0.104110674021704
18.4792,-0.119569746669937
18.4793,-0.108297506179721
18.4794,-0.118603554624189
18.4795,-0.129553731184075
18.4796,-0.128909603148615
18.4797,-0.100567969898079
18.4798,-0.0854309614726983
18.4799,-0.0963811377638144
18.48,-0.061276161131225
18.4801,-0.0609540971294135
18.4802,-0.0339007212274237
18.4803,-0.0593437771214224
18.4804,-0.0654629931612669
18.4805,-0.0754469772819575
18.4806,-0.0670733131760429
18.4807,-0.0413081931519898
18.4808,-0.0303580172762262
18.4809,-0.0348669132155376
18.481,-0.0290697612959993
18.4811,0.00313663786608664
18.4812,-0.0268153133331924
18.4813,-0.00394876989378919
18.4814,0.00571314977113429
18.4815,0.00539108578322469
18.4816,-0.00330464191433903
18.4817,-0.0142548176001776
18.4818,-0.0358331052042636
18.4819,0.00088218994584003
18.482,0.00925585363398179
18.4821,0.00571314977113429
18.4822,0.00410282983095423
18.4823,0.0256811168997753
18.4824,-0.0332565932356874
18.4825,-0.02745944132223
18.4826,-0.0226284814109707
18.4827,-0.0120003696587152
18.4828,-0.0342227852233937
18.4829,-0.0268153133331924
18.483,-0.011678305667339
18.4831,-0.00298257792471027
18.4832,-0.00330464191433903
18.4833,0.0324444605512518
18.4834,0.0202060291623149
18.4835,-0.0107121136936018
18.4836,-0.0078135377759016
18.4837,-0.0525804331071744
18.4838,-0.0490377291120789
18.4839,-0.0828544494167046
18.484,-0.0664291851699171
18.4841,-0.02745944132223
18.4842,0.0185957092361647
18.4843,0.0646508585353082
18.4844,0.085585016922007
18.4845,0.126487141127091
18.4846,0.180593886915823
18.4847,0.212800282642831
18.4848,0.23695507918516
18.4849,0.252736212817849
18.485,0.330997751981329
18.4851,0.280111648523642
18.4852,0.329065368317631
18.4853,0.331641879869037
18.4854,0.390901645168954
18.4855,0.37962940725546
18.4856,0.35772905924419
18.4857,0.302656124822777
18.4858,0.380273535136814
18.4859,0.35772905924419
18.486,0.302011996930443
18.4861,0.271737985861366
18.4862,0.241786038469267
18.4863,0.235344759422032
18.4864,0.231479991986894
18.4865,0.214088538463704
18.4866,0.202172172097067
18.4867,0.148065426804152
18.4868,0.132606356490003
18.4869,0.131640164591751
18.487,0.0804319933405178
18.4871,0.0691597542074699
18.4872,0.0543448112432362
18.4873,0.0482255956358979
18.4874,0.0353430363937753
18.4875,-0.0226284814109707
18.4876,-0.0657850571640785
18.4877,-0.0390537451711177
18.4878,-0.0277815053168495
18.4879,-0.02745944132223
18.488,-0.00427083388361069
18.4881,0.0263252448677307
18.4882,0.0430725719503267
18.4883,0.0617522827402679
18.4884,0.0852629529485669
18.4885,0.0727024579422465
18.4886,0.0601419628521626
18.4887,0.0430725719503267
18.4888,0.0359871643581243
18.4889,-0.0145768815920769
18.489,-0.00491496186344673
18.4891,-0.00491496186344673
18.4892,-0.0184416494999941
18.4893,-0.0364772331970881
18.4894,-0.0834985774302595
18.4895,-0.0825323854100378
18.4896,-0.0999238418765897
18.4897,-0.0986355858345215
18.4898,-0.0725484012397531
18.4899,-0.102500353964369
18.49,-0.135028819498344
18.4901,-0.160793941291047
18.4902,-0.165624901685832
18.4903,-0.226495004317796
18.4904,-0.277703188405701
18.4905,-0.324402477920277
18.4906,-0.394290384235133
18.4907,-0.409105332777126
18.4908,-0.4760946683559
18.4909,-0.490587554134391
18.491,-0.527624930040016
18.4911,-0.534066212976394
18.4912,-0.591071569231383
18.4913,-0.610073355578414
18.4914,-0.630041334966368
18.4915,-0.669655231155946
18.4916,-0.662247754468831
18.4917,-0.691877661677415
18.4918,-0.68285986370096
18.4919,-0.654196149460215
18.492,-0.714100092898971
18.4921,-0.712489771772157
18.4922,-0.723439955508453
18.4923,-0.751137479858545
18.4924,-0.777224684067815
18.4925,-0.755324315033326
18.4926,-0.730203304373768
18.4927,-0.715066285576855
18.4928,-0.683181927912429
18.4929,-0.655806470454793
18.493,-0.640347389053408
18.4931,-0.627786885653928
18.4932,-0.647432801321835
18.4933,-0.636482618753935
18.4934,-0.617802895923582
18.4935,-0.564662307629017
18.4936,-0.551779741316492
18.4937,-0.551135613006354
18.4938,-0.545016394085962
18.4939,-0.49123168239696
18.494,-0.497672965049739
18.4941,-0.492519938923573
18.4942,-0.505402504298407
18.4943,-0.506368696709526
18.4944,-0.504758376024951
18.4945,-0.516352685023683
18.4946,-0.522793967871163
18.4947,-0.490587554134391
18.4948,-0.489943425872313
18.4949,-0.536320662016212
18.495,-0.55371212625003
18.4951,-0.593326018434286
18.4952,-0.669011102745346
18.4953,-0.713778028673309
18.4954,-0.749849222886935
18.4955,-0.81909303866867
18.4956,-0.856774560152879
18.4957,-0.869335067818874
18.4958,-0.886082411772348
18.4959,-0.907982785330691
18.496,-0.894456083921539
18.4961,-0.908304849653666
18.4962,-0.886726540395111
18.4963,-0.864826167601732
18.4964,-0.858062817337671
18.4965,-0.855808367266038
18.4966,-0.766918627961717
18.4967,-0.718608992073977
18.4968,-0.663858075481296
18.4969,-0.612649869017996
18.497,-0.618124960106354
18.4971,-0.452261923384997
18.4972,-0.415546614826283
18.4973,-0.358541270237152
18.4974,-0.278991444640212
18.4975,-0.1965430486642
18.4976,-0.106043058093027
18.4977,-0.0622423531370868
18.4978,0.0408181240831785
18.4979,0.110706006688492
18.498,0.164490688896893
18.4981,0.23437856756373
18.4982,0.297825165627579
18.4983,0.380917663018096
18.4984,0.439533299952373
18.4985,0.482689867560259
18.4986,0.549679166363092
18.4987,0.601853524135844
18.4988,0.643721836083848
18.4989,0.646942475472912
18.499,0.638890877002793
18.4991,0.680437125209406
18.4992,0.677860613684844
18.4993,0.657892649406439
18.4994,0.679470933387561
18.4995,0.701049217449124
18.4996,0.692675554967178
18.4997,0.692031427084507
18.4998,0.651773434559146
18.4999,0.577054600978958
18.5,0.554111961992087
18.5001,0.500649348534722
18.5002,0.444288159538582
18.5003,0.42238781174017
18.5004,0.406606678731232
18.5005,0.38019743565439
18.5006,0.325768629393766
18.5007,0.321903862060784
18.5008,0.334142291936487
18.5009,0.270051566633805
18.501,0.219809590167707
18.5011,0.243320258746469
18.5012,0.150565839030331
18.5013,0.134784704768492
18.5014,0.107409267509971
18.5015,0.088085429225179
18.5016,0.0568452235892789
18.5017,0.0233505695275916
18.5018,0.0239946974963986
18.5019,-0.0304341167586507
18.502,-0.0436387406186571
18.5021,-0.0504020845917412
18.5022,-0.0732686287310476
18.5023,-0.0838967409195723
18.5024,-0.118679654106613
18.5025,-0.136715239077596
18.5026,-0.151208120039904
18.5027,-0.124154742375178
18.5028,-0.121256166230174
18.5029,-0.153784632228263
18.503,-0.175040857985049
18.5031,-0.169887833525639
18.5032,-0.165701001168256
18.5033,-0.152496376133426
18.5034,-0.166023065195244
18.5035,-0.192432315696878
18.5036,-0.200483916574891
18.5037,-0.210789965779018
18.5038,-0.213688542134075
18.5039,-0.21529886233446
18.504,-0.228503488062648
18.5041,-0.223028399327611
18.5042,-0.270049750513636
18.5043,-0.287119145623732
18.5044,-0.299679644088402
18.5045,-0.319325552248831
18.5046,-0.338971460789625
18.5047,-0.325444769621979
18.5048,-0.348311319084306
18.5049,-0.323190321111772
18.505,-0.314816655260667
18.5051,-0.345412742362694
18.5052,-0.349599575407769
18.5053,-0.347023062762534
18.5054,-0.29323836280564
18.5055,-0.267795302123215
18.5056,-0.27262626296561
18.5057,-0.238809537517976
18.5058,-0.270693878626051
18.5059,-0.197907404287977
18.506,-0.205636941165621
18.5061,-0.179227690374309
18.5062,-0.128341574595896
18.5063,-0.12544299844167
18.5064,-0.0938807251699547
18.5065,-0.0723024367178514
18.5066,-0.0198060049538343
18.5067,0.0223843775739235
18.5068,0.0626423751900295
18.5069,0.0987135403049856
18.507,0.137361216492395
18.5071,0.156040926401429
18.5072,0.194044473687777
18.5073,0.166346973182456
18.5074,0.168923484870656
18.5075,0.125444849743662
18.5076,0.159261566025395
18.5077,0.1843825549421
18.5078,0.180195723474067
18.5079,0.15861743810096
18.508,0.153786478661976
18.5081,0.17343238031832
18.5082,0.156040926401429
18.5083,0.143480431824574
18.5084,0.16956761279227
18.5085,0.148311391285464
18.5086,0.139293600283336
18.5087,0.16538078129866
18.5088,0.157329182251554
18.5089,0.139293600283336
18.509,0.10966371529777
18.5091,0.11932563436041
18.5092,0.113206418959306
18.5093,0.141870112001956
18.5094,0.117393250551476
18.5095,0.09388258073035
18.5096,0.0954929005898683
18.5097,0.114494674834719
18.5098,0.122546274038014
18.5099,0.160227757911712
18.51,0.167313165065858
18.5101,0.183416363065489
18.5102,0.197909241175791
18.5103,0.244930578505231
18.5104,0.249761537776386
18.5105,0.267797118989297
18.5106,0.255880752842294
18.5107,0.308699240312101
18.5108,0.332531972217993
18.5109,0.333820227992836
18.511,0.344770402063965
18.5111,0.348313105434317
18.5112,0.353466128513748
18.5113,0.347668977548998
18.5114,0.358941215529676
18.5115,0.346058657835312
18.5116,0.35861915158773
18.5117,0.308377176366462
18.5118,0.341871826577123
18.5119,0.316106711054517
18.512,0.291629851155512
18.5121,0.260067584196292
18.5122,0.240421683178517
18.5123,0.240743747130651
18.5124,0.210469735472406
18.5125,0.219487526213225
18.5126,0.213046247115682
18.5127,0.206927031958875
18.5128,0.136395024596287
18.5129,0.131886129075458
18.513,0.138005344422897
18.5131,0.134784704768492
18.5132,0.159905693949651
18.5133,0.128665489411977
18.5134,0.10193418001491
18.5135,0.0700498466533755
18.5136,0.0781014460368427
18.5137,0.0539466477819959
18.5138,0.013044521993285
18.5139,-0.00144835745995296
18.514,-0.0185177489824187
18.5141,-0.0268914128156169
18.5142,-0.0520124045898609
18.5143,-0.0632846446260149
18.5144,-0.0906600850813561
18.5145,-0.0826084848924623
18.5146,-0.0900159570645342
18.5147,-0.0835746769126841
18.5148,-0.113204565860614
18.5149,-0.0932365971516354
18.515,-0.115136949944873
18.5151,-0.130596022720286
18.5152,-0.147343351767198
18.5153,-0.148631607856792
18.5154,-0.155717016372988
18.5155,-0.213366478094266
18.5156,-0.211756157896566
18.5157,-0.232046192552308
18.5158,-0.224316655498197
18.5159,-0.267151174012531
18.516,-0.245250818475593
18.5161,-0.247827330869073
18.5162,-0.266829109957333
18.5163,-0.299679644088402
18.5164,-0.293882490932128
18.5165,-0.252980355674029
18.5166,-0.245894946573403
18.5167,-0.223350463370121
18.5168,-0.237199217284367
18.5169,-0.212400285975378
18.517,-0.181482138589881
18.5171,-0.159581784671361
18.5172,-0.144122711548915
18.5173,-0.0855070609551228
18.5174,-0.0867953169848967
18.5175,-0.0587757486011475
18.5176,-0.0475035085995245
18.5177,-0.0107882131760263
18.5178,0.036233128857785
18.5179,0.0536245838031229
18.518,0.0742366783370599
18.5181,0.0929163888140092
18.5182,0.12158008213525
18.5183,0.141225984072582
18.5184,0.109985779267253
18.5185,0.0896957490894462
18.5186,0.13768328045767
18.5187,0.106121011630111
18.5188,0.146701071466323
18.5189,0.187603194528104
18.519,0.169245548831484
18.5191,0.164414589414468
18.5192,0.130919937176919
18.5193,0.0806779578323407
18.5194,0.0742366783370599
18.5195,0.0639306310988235
18.5196,0.050081880031725
18.5197,0.0391317046938817
18.5198,0.0652188870067196
18.5199,0.0597437993919474
18.52,0.0314021691202424
18.5201,0.033334553016873
18.5202,0.00177228242961695
18.5203,0.0281815292877182
18.5204,0.00209434641822353
18.5205,-0.0072455092773283
18.5206,0.0165872258403273
18.5207,-0.0120764691411397
18.5208,-0.0458931886062836
18.5209,-0.0652170286409514
18.521,-0.0558771725925039
18.5211,-0.0745568847496593
18.5212,-0.0800319728417797
18.5213,-0.0710141807012715
18.5214,-0.0249590288501119
18.5215,-0.0487917645953684
18.5216,-0.0916262771071494
18.5217,-0.0764892687797609
18.5218,-0.0629625806237757
18.5219,-0.106441221587606
18.522,-0.103864709492509
18.5221,-0.0681156046681954
18.5222,-0.0706921166973075
18.5223,-0.0964572372462389
18.5224,-0.116747270017223
18.5225,-0.118035526076504
18.5226,-0.11835759009152
18.5227,-0.125120934424929
18.5228,-0.11384869388839
18.5229,-0.132206342811521
18.523,-0.135426982999974
18.5231,-0.156361144421889
18.5232,-0.128985702631039
18.5233,-0.141868263400948
18.5234,-0.137681431136654
18.5235,-0.167633385331439
18.5236,-0.217231246577882
18.5237,-0.219485694865968
18.5238,-0.216587118496382
18.5239,-0.231724128507336
18.524,-0.220451886990786
18.5241,-0.18051594649698
18.5242,-0.17407466589726
18.5243,-0.20402662097859
18.5244,-0.233656512778547
18.5245,-0.202416300793769
18.5246,-0.178583562313486
18.5247,-0.152174312109922
18.5248,-0.128663638613428
18.5249,-0.0942027891792269
18.525,-0.0813202288665323
18.5251,-0.0671494126584674
18.5252,-0.0819643568793499
18.5253,-0.0632846446260149
18.5254,-0.102254389435555
18.5255,-0.114814885930636
18.5256,-0.112238373819531
18.5257,-0.0967793012561134
18.5258,-0.0983896213066183
18.5259,-0.108373605662145
18.526,-0.0861511889698614
18.5261,-0.0819643568793499
18.5262,-0.110950117765835
18.5263,-0.120612038198814
18.5264,-0.0903380210729078
18.5265,-0.0797099088357752
18.5266,-0.0690817966785714
18.5267,-0.0829305488991291
18.5268,-0.0848629329406806
18.5269,-0.0507241485912253
18.527,-0.0558771725925039
18.5271,-0.0201280689468535
18.5272,-0.0143309170826021
18.5273,-0.0162633010349823
18.5274,-0.0172294930120597
18.5275,0.0259270814013588
18.5276,0.0149769059107839
18.5277,0.0262491453853062
18.5278,0.00724737022731155
18.5279,-0.00305867740713481
18.528,0.00917975415155725
18.5281,0.0301139131879553
18.5282,0.0384875767307194
18.5283,0.0603879273474721
18.5284,0.0201299296798903
18.5285,0.00789149820231145
18.5286,0.0294697852214508
18.5287,0.0394537686753742
18.5288,0.0581334795021441
18.5289,0.0439626644100854
18.529,0.033334553016873
18.5291,0.0423523445061536
18.5292,0.0420302805251913
18.5293,0.0513701359494032
18.5294,0.0420302805251913
18.5295,0.0352669369113508
18.5296,0.0787455739860429
18.5297,0.0810000218065341
18.5298,0.0861530453863019
18.5299,0.108053395449596
18.53,0.106443075600152
18.5301,0.0797117659094358
18.5302,0.0774573180874248
18.5303,0.0755249342378622
18.5304,0.101290052073338
18.5305,0.0826103416766909
18.5306,0.11932563436041
18.5307,0.0922722608695189
18.5308,0.072626358459822
18.5309,0.0896957490894462
18.531,0.0925943248417904
18.5311,0.0903398770347817
18.5312,0.0987135403049856
18.5313,0.100645924131561
18.5314,0.0909840049799054
18.5315,0.0752028702627439
18.5316,0.0983914763337082
18.5317,0.103544499867936
18.5318,0.0793897019350258
18.5319,0.0542687117608117
18.532,0.0568452235892789
18.5321,0.0455729843125542
18.5322,0.0423523445061536
18.5323,0.0838985975718464
18.5324,0.0568452235892789
18.5325,0.0806779578323407
18.5326,0.0417082165441702
18.5327,0.0281815292877182
18.5328,-0.00177042144926121
18.5329,0.0259270814013588
18.533,0.0520142639078964
18.5331,0.0243167614807107
18.5332,0.0210961216348435
18.5333,0.000806090463415489
18.5334,-0.0123985331325811
18.5335,0.0236726335120256
18.5336,0.00048402647455429
18.5337,0.0262491453853062
18.5338,0.0043487943366922
18.5339,-0.00917789322109919
18.534,-0.00788963725832614
18.5341,-0.0127205971240878
18.5342,-0.0149750450664663
18.5343,0.0136886499660332
18.5344,-0.0185177489824187
18.5345,-0.0178736209971073
18.5346,-0.0497579565929828
18.5347,-0.0545889165904977
18.5348,-0.044604932612939
18.5349,-0.0900159570645342
18.535,-0.100966133391362
18.5351,-0.104508837515825
18.5352,-0.0919483411158968
18.5353,-0.0951689812074948
18.5354,-0.110950117765835
18.5355,-0.125120934424929
18.5356,-0.0806761008540089
18.5357,-0.0813202288665323
18.5358,-0.0726245007221776
18.5359,-0.0674714766616382
18.536,-0.0822864208858693
18.5361,-0.100322005369721
18.5362,-0.109983925726374
18.5363,-0.0951689812074948
18.5364,-0.0813202288665323
18.5365,-0.0690817966785714
18.5366,-0.111272181779144
18.5367,-0.0916262771071494
18.5368,-0.0951689812074948
18.5369,-0.0855070609551228
18.537,-0.0893718290480109
18.5371,-0.0877615090080066
18.5372,-0.117069334031926
18.5373,-0.148631607856792
18.5374,-0.0977454932861897
18.5375,-0.068437668671582
18.5376,-0.068437668671582
18.5377,-0.0452490606094728
18.5378,-0.0201280689468535
18.5379,-0.0455711246078436
18.538,-0.0442828686147759
18.5381,-0.0542668525901722
18.5382,-0.0143309170826021
18.5383,-0.0301120527634929
18.5384,-0.0198060049538343
18.5385,-0.0285017327887144
18.5386,-0.0175515570045505
18.5387,-0.0326885647266468
18.5388,-0.0352650766941361
18.5389,-0.0281796687939606
18.539,-0.0239928368682618
18.5391,-0.0107882131760263
18.5392,-0.0169074290196347
18.5393,-0.0317223727399571
18.5394,-0.0397739726477339
18.5395,-0.00241454942806981
18.5396,0.0162651618545424
18.5397,0.0565231596109203
18.5398,0.0623203112126905
18.5399,0.0971032204480785
18.54,0.129631681311527
18.5401,0.151209966957025
18.5402,0.186637002652737
18.5403,0.200163688874469
18.5404,0.237845171560189
18.5405,0.240421683178517
18.5406,0.255558688891756
18.5407,0.318683222613876
18.5408,0.330599588555015
18.5409,0.334464355880115
18.541,0.374400284719562
18.5411,0.334786419823719
18.5412,0.295172554571815
18.5413,0.271339822429977
18.5414,0.259745520246181
18.5415,0.261033776046432
18.5416,0.205316712178443
18.5417,0.197265113261524
18.5418,0.16956761279227
18.5419,0.136072960630823
18.542,0.126088977677713
18.5421,0.105476883689874
18.5422,0.0900178130621405
18.5423,0.0552349036969155
18.5424,0.0272153373367846
18.5425,-0.00595725331610849
18.5426,-0.0233487088806953
18.5427,-0.046215252604793
18.5428,-0.0745568847496593
18.5429,-0.102898517458108
18.543,-0.103542645480966
18.5431,-0.0999999413590143
18.5432,-0.0903380210729078
18.5433,-0.098711685316946
18.5434,-0.101932325424393
18.5435,-0.125120934424929
18.5436,-0.139291751236694
18.5437,-0.139291751236694
18.5438,-0.123510614342405
18.5439,-0.142190327421843
18.544,-0.165056873114533
18.5441,-0.159903848696764
18.5442,-0.205959005203292
18.5443,-0.203060428867433
18.5444,-0.248149394918679
18.5445,-0.308375373883547
18.5446,-0.286797081562512
18.5447,-0.294526619059012
18.5448,-0.269405622401607
18.5449,-0.272948327022541
18.545,-0.290983914366053
18.5451,-0.307087117612976
18.5452,-0.301612028481005
18.5453,-0.246861138720817
18.5454,-0.255878932137409
18.5455,-0.233012384687776
18.5456,-0.22657110380022
18.5457,-0.196941212181831
18.5458,-0.19533089200667
18.5459,-0.165056873114533
18.546,-0.170854025610131
18.5461,-0.157327336495862
18.5462,-0.139935879277273
18.5463,-0.139935879277273
18.5464,-0.169243705469733
18.5465,-0.155717016372988
18.5466,-0.192110251662892
18.5467,-0.173108473810233
18.5468,-0.149597799924845
18.5469,-0.137037303097201
18.547,-0.143800647527534
18.5471,-0.125120934424929
18.5472,-0.134782854961644
18.5473,-0.162802424929133
18.5474,-0.191144059561455
18.5475,-0.182770394714948
18.5476,-0.189533739394129
18.5477,-0.186635163098396
18.5478,-0.179227690374309
18.5479,-0.168277513386504
18.548,-0.110628053752605
18.5481,-0.148953671879395
18.5482,-0.121578230245971
18.5483,-0.1296298306665
18.5484,-0.0909821490898791
18.5485,-0.0465373166033717
18.5486,-0.0719803727135978
18.5487,-0.0945248531885743
18.5488,-0.117391398046708
18.5489,-0.106763285599837
18.549,-0.109339797700452
18.5491,-0.128019510578443
18.5492,-0.126087126475389
18.5493,-0.121900294261847
18.5494,-0.130273958702278
18.5495,-0.105797093563373
18.5496,-0.0990337493273495
