18.1,0.00783239052086084
18.1001,-0.00601636100029866
18.1002,-0.0063384249905713
18.1003,0.00718826254573511
18.1004,-0.0102031928788929
18.1005,0.00879858248307781
18.1006,0.0242576538024165
18.1007,-0.0221195605938272
18.1008,-0.0269505205040843
18.1009,-0.0388668883475243
18.101,-0.0082708089335651
18.1011,-0.044019912308758
18.1012,-0.0237298805622439
18.1013,-0.0398330803389148
18.1014,-0.0346800563919442
18.1015,-0.0507832562847613
18.1016,-0.0456302323002657
18.1017,-0.0491729362876903
18.1018,-0.051749448283843
18.1019,-0.0446640403051534
18.102,-0.0511053202843852
18.1021,-0.0436978483106641
18.1022,-0.0514273842840791
18.1023,-0.0752601204583642
18.1024,-0.0478846802912893
18.1025,-0.052393576283581
18.1026,-0.076226312473743
18.1027,-0.0791248885238262
18.1028,-0.095872216930422
18.1029,-0.0649540723349335
18.103,-0.06237756031559
18.1031,-0.0739718644388794
18.1032,-0.0884647447257678
18.1033,-0.0874985527019887
18.1034,-0.120349081892796
18.1035,-0.116806377725909
18.1036,-0.104890009233428
18.1037,-0.0994149210423657
18.1038,-0.081701400573332
18.1039,-0.0652761363376735
18.104,-0.0823455285864444
18.1041,-0.0498170642863092
18.1042,-0.0723615444161597
18.1043,-0.0955501529206983
18.1044,-0.115840185682032
18.1045,-0.127434490255052
18.1046,-0.0858882326638435
18.1047,-0.095872216930422
18.1048,-0.104245881209807
18.1049,-0.107466521330974
18.105,-0.0717174164075799
18.1051,-0.0636658163246898
18.1052,-0.0678526483621775
18.1053,-0.0614113683095144
18.1054,-0.0543259602844798
18.1055,-0.0903971287753382
18.1056,-0.0810572725605144
18.1057,-0.101025241096278
18.1058,-0.138706730910507
18.1059,-0.144825947307529
18.106,-0.103923817198111
18.1061,-0.119060825831016
18.1062,-0.120349081892796
18.1063,-0.119060825831016
18.1064,-0.108754777381588
18.1065,-0.0675305843588629
18.1066,-0.0868544246865078
18.1067,-0.0923295128275983
18.1068,-0.125180042135652
18.1069,-0.10263556115209
18.107,-0.0878206167098407
18.1071,-0.108432713368819
18.1072,-0.121315273939954
18.1073,-0.117450505755549
18.1074,-0.154809932018398
18.1075,-0.157386444214667
18.1076,-0.150945163733886
18.1077,-0.118416697800595
18.1078,-0.0916853848098789
18.1079,-0.0884647447257678
18.108,-0.112941609554596
18.1081,-0.114873993638855
18.1082,-0.121637337955829
18.1083,-0.101347305107288
18.1084,-0.155131996042643
18.1085,-0.14708039546118
18.1086,-0.172845517504215
18.1087,-0.152233419827408
18.1088,-0.148046587528253
18.1089,-0.125502106152472
18.109,-0.108110649356127
18.1091,-0.129044810342712
18.1092,-0.13709641081087
18.1093,-0.139028794930676
18.1094,-0.145792139372891
18.1095,-0.13001100239626
18.1096,-0.129688938378331
18.1097,-0.117450505755549
18.1098,-0.124213850085665
18.1099,-0.095872216930422
18.11,-0.107144457318512
18.1101,-0.132265450523989
18.1102,-0.149334843618827
18.1103,-0.154809932018398
18.1104,-0.161251212519008
18.1105,-0.106822393306128
18.1106,-0.117772569770487
18.1107,-0.089108872741993
18.1108,-0.0916853848098789
18.1109,-0.109076841394434
18.111,-0.0704291603912896
18.1111,-0.0868544246865078
18.1112,-0.100059049063703
18.1113,-0.134197834636581
18.1114,-0.127434490255052
18.1115,-0.0759042484685438
18.1116,-0.0707512243952536
18.1117,-0.0585127922951296
18.1118,-0.0472405522935066
18.1119,-0.0639878803271434
18.112,-0.0214754326069262
18.1121,0.00461175064271009
18.1122,-0.0056942970100906
18.1123,0.0168501821463452
18.1124,-0.0424095923189788
18.1125,-0.0926515768365704
18.1126,-0.116484313711205
18.1127,-0.0836337846135544
18.1128,-0.0807352085542159
18.1129,-0.0775145684952704
18.113,-0.109076841394434
18.1131,-0.121637337955829
18.1132,-0.0936177688639368
18.1133,-0.0897530007585163
18.1134,-0.103601753186491
18.1135,-0.136452282771578
18.1136,-0.156098188115872
18.1137,-0.163183596675669
18.1138,-0.139672922971255
18.1139,-0.105212073245353
18.114,-0.0836337846135544
18.1141,-0.0752601204583642
18.1142,-0.0713953524033987
18.1143,-0.0591569202978291
18.1144,-0.025340200532328
18.1145,-0.026628456509599
18.1146,-0.0275946484932561
18.1147,-0.0279167124879427
18.1148,-0.0546480242848757
18.1149,-0.0314594164339392
18.115,-0.0488508722884855
18.1151,0.0120192223530595
18.1152,0.0126633503263058
18.1153,0.0245797177867286
18.1154,0.0252238457551702
18.1155,-0.00472810503985338
18.1156,-0.0176106646910894
18.1157,-0.0111693848524348
18.1158,-0.0346800563919442
18.1159,-0.0588348562964439
18.116,-0.0829896565998518
18.1161,-0.0981266650006004
18.1162,-0.0736498004341901
18.1163,-0.0607672403058201
18.1164,-0.0626996243177578
18.1165,-0.0717174164075799
18.1166,-0.0742939284436414
18.1167,-0.0833117206066662
18.1168,-0.0681747123655641
18.1169,-0.0884647447257678
18.117,-0.0849220406418468
18.1171,-0.0916853848098789
18.1172,-0.0868544246865078
18.1173,-0.107466521330974
18.1174,-0.105856201269433
18.1175,-0.113585737582372
18.1176,-0.105856201269433
18.1177,-0.129044810342712
18.1178,-0.127112426237758
18.1179,-0.126146234186349
18.118,-0.0694629683798313
18.1181,-0.0472405522935066
18.1182,-0.0311373524385113
18.1183,-0.0594789842992852
18.1184,-0.0759042484685438
18.1185,-0.0636658163246898
18.1186,-0.0562583442879121
18.1187,-0.0752601204583642
18.1188,-0.0887868087338431
18.1189,-0.0852441046491049
18.119,-0.103923817198111
18.1191,-0.106822393306128
18.1192,-0.0794469525297573
18.1193,-0.06237756031559
18.1194,-0.100381113074485
18.1195,-0.100381113074485
18.1196,-0.0833117206066662
18.1197,-0.102313497140776
18.1198,-0.0978046009903483
18.1199,-0.0810572725605144
18.12,-0.0633437523223077
18.1201,-0.0572245362905809
18.1202,-0.063021688319997
18.1203,-0.0655982003404852
18.1204,-0.0813793365668864
18.1205,-0.0775145684952704
18.1206,-0.0784807605121841
18.1207,-0.0530377042835996
18.1208,-0.0665643923493507
18.1209,-0.0923295128275983
18.121,-0.130333066414268
18.1211,-0.0871764886942111
18.1212,-0.0842779126275526
18.1213,-0.0920074488187011
18.1214,-0.135486090713241
18.1215,-0.139350858950925
18.1216,-0.104890009233428
18.1217,-0.107144457318512
18.1218,-0.114873993638855
18.1219,-0.140961179053382
18.122,-0.141283243074115
18.1221,-0.148690715573377
18.1222,-0.13001100239626
18.1223,-0.134519898655626
18.1224,-0.131943386505503
18.1225,-0.113263673568446
18.1226,-0.0865323606788788
18.1227,-0.0965163449500955
18.1228,-0.094583960891979
18.1229,-0.0684967763690227
18.123,-0.0920074488187011
18.1231,-0.0878206167098407
18.1232,-0.078158696506473
18.1233,-0.105212073245353
18.1234,-0.111009225473126
18.1235,-0.109076841394434
18.1236,-0.105856201269433
18.1237,-0.0903971287753382
18.1238,-0.076226312473743
18.1239,-0.0678526483621775
18.124,-0.115840185682032
18.1241,-0.111975417513513
18.1242,-0.0955501529206983
18.1243,-0.156098188115872
18.1244,-0.149656907641675
18.1245,-0.109720969420356
18.1246,-0.142571499157859
18.1247,-0.117772569770487
18.1248,-0.123569722052734
18.1249,-0.088142680717767
18.125,-0.105212073245353
18.1251,-0.0498170642863092
18.1252,-0.0897530007585163
18.1253,-0.111331289486511
18.1254,-0.121315273939954
18.1255,-0.120993209924156
18.1256,-0.141927371115825
18.1257,-0.146758331438986
18.1258,-0.145470075351022
18.1259,-0.15545406006697
18.126,-0.168014557080486
18.1261,-0.152233419827408
18.1262,-0.150945163733886
18.1263,-0.130333066414268
18.1264,-0.130977194450523
18.1265,-0.117772569770487
18.1266,-0.103601753186491
18.1267,-0.106178265281588
18.1268,-0.0849220406418468
18.1269,-0.0498170642863092
18.127,-0.044019912308758
18.1271,-0.0295270324623846
18.1272,-0.0414434003259388
18.1273,-0.005050169029868
18.1274,-0.055614216286486
18.1275,-0.0446640403051534
18.1276,-0.00923700090593675
18.1277,-0.0188989206619764
18.1278,-0.0263063925151808
18.1279,-0.0166444727136168
18.128,-0.0382227603536066
18.1281,-0.0662423283463238
18.1282,-0.0633437523223077
18.1283,-0.0404772083335182
18.1284,-0.0188989206619764
18.1285,-0.0581907282938862
18.1286,-0.0646320083322652
18.1287,-0.0701070963873979
18.1288,-0.0391889523445859
18.1289,-0.040799272330923
18.129,-0.0217974966003435
18.1291,-0.0224416245873773
18.1292,-0.0295270324623846
18.1293,-0.0214754326069262
18.1294,-0.0211533686135754
18.1295,-0.0221195605938272
18.1296,0.0110530303927219
18.1297,0.0158839901888049
18.1298,-0.00762668095230824
18.1299,0.0113750943795635
18.13,-0.0337138644038304
18.1301,-0.0398330803389148
18.1302,-0.0179327286837121
18.1303,-0.0275946484932561
18.1304,-0.0282387764826966
18.1305,-0.0401551443361822
18.1306,-0.0739718644388794
18.1307,-0.0884647447257678
18.1308,-0.0978046009903483
18.1309,-0.0749380564533837
18.131,-0.0878206167098407
18.1311,-0.054970088285342
18.1312,-0.032103544424998
18.1313,-0.032103544424998
18.1314,-0.0243740085500772
18.1315,-0.0150341527524789
18.1316,-0.00182952913261558
18.1317,0.0100868384318217
18.1318,0.0181384380888672
18.1319,-0.00343984908043862
18.132,-0.0127797048096419
18.1321,-0.0192209846548633
18.1322,-0.0301711604526329
18.1323,-0.010847320861189
18.1324,-0.00698255297131041
18.1325,-0.0214754326069262
18.1326,-0.0932957048547396
18.1327,-0.054970088285342
18.1328,-0.0472405522935066
18.1329,-0.0887868087338431
18.133,-0.0601231123024105
18.1331,-0.0626996243177578
18.1332,-0.0874985527019887
18.1333,-0.13709641081087
18.1334,-0.134519898655626
18.1335,-0.122925594020118
18.1336,-0.113907801596377
18.1337,-0.0852441046491049
18.1338,-0.0662423283463238
18.1339,-0.0372565683632432
18.134,-0.0118135128351218
18.1341,-0.010847320861189
18.1342,0.0194266940304026
18.1343,-0.0121355768265632
18.1344,-0.000219209186394037
18.1345,0.0126633503263058
18.1346,0.0120192223530595
18.1347,0.0255459097392998
18.1348,0.0271562296590369
18.1349,0.00235730272424142
18.135,-0.0259843285208296
18.1351,-0.0192209846548633
18.1352,-0.033069736412094
18.1353,-0.0327476724163276
18.1354,-0.0185768566691555
18.1355,-0.0089149369150813
18.1356,-0.0192209846548633
18.1357,-0.0356462483806702
18.1358,-0.0588348562964439
18.1359,-0.0746159924484762
18.136,-0.0585127922951296
18.1361,-0.0285608404775176
18.1362,-0.0147120887604484
18.1363,-0.0111693848524348
18.1364,-0.005050169029868
18.1365,-0.00440604104990318
18.1366,-0.0160003447289644
18.1367,-0.00343984908043862
18.1368,-0.0102031928788929
18.1369,0.0158839901888049
18.137,-0.0105252568700084
18.1371,-0.0056942970100906
18.1372,-0.005050169029868
18.1373,0.00847651849573498
18.1374,0.0316651254262603
18.1375,0.051311028276088
18.1376,0.0529213481721772
18.1377,0.0335975093228908
18.1378,0.0406829169255154
18.1379,0.0448697486772661
18.138,0.0529213481721772
18.1381,0.0535654761302103
18.1382,0.0822291700348079
18.1383,0.100908880437579
18.1384,0.112503183358237
18.1385,0.0970441127825588
18.1386,0.0996206245534025
18.1387,0.110570799542703
18.1388,0.0796526582410437
18.1389,0.0944676010083764
18.139,0.0796526582410437
18.1391,0.0567861159169382
18.1392,0.0329533813575869
18.1393,0.0297327415274686
18.1394,0.0297327415274686
18.1395,0.0583964358081619
18.1396,0.0748216986183606
18.1397,0.088026321558184
18.1398,0.107350159846101
18.1399,0.0590405637642535
18.14,0.0616170755863531
18.1401,0.0245797177867286
18.1402,0.0335975093228908
18.1403,0.0303768694939732
18.1404,0.0310209974602369
18.1405,0.0355298932173687
18.1406,0.0497007083785572
18.1407,0.0551757960242893
18.1408,0.0439035567354341
18.1409,-0.0211533686135754
18.141,0.00654413457035748
18.1411,-0.0217974966003435
18.1412,-0.0250181365381776
18.1413,-0.0282387764826966
18.1414,-0.0279167124879427
18.1415,-0.0295270324623846
18.1416,-0.0121355768265632
18.1417,-0.0610893043076317
18.1418,-0.0791248885238262
18.1419,-0.0649540723349335
18.142,-0.0453081683018257
18.1421,-0.0443419763069211
18.1422,-0.032103544424998
18.1423,-0.0469184882947195
18.1424,-0.0401551443361822
18.1425,-0.0285608404775176
18.1426,-0.0379006963567504
18.1427,-0.025340200532328
18.1428,-0.00666048898090854
18.1429,-0.0172886006985326
18.143,-0.0156782807367368
18.1431,-0.0137458967847504
18.1432,-0.0118135128351218
18.1433,-0.0552921522858787
18.1434,-0.0214754326069262
18.1435,-0.0279167124879427
18.1436,-0.0424095923189788
18.1437,-0.0398330803389148
18.1438,-0.0317814804294348
18.1439,-0.0340359283998004
18.144,-0.0182547926764008
18.1441,-0.0372565683632432
18.1442,-0.0230857525746774
18.1443,0.0149177982307072
18.1444,0.00718826254573511
18.1445,-0.0292049684673616
18.1446,-0.0543259602844798
18.1447,-0.0459522962987751
18.1448,-0.0217974966003435
18.1449,-0.025340200532328
18.145,-0.040799272330923
18.1451,-0.0340359283998004
18.1452,-0.00955906489685715
18.1453,-0.0188989206619764
18.1454,-0.0195430486478164
18.1455,-0.0163224087212577
18.1456,-0.0427316563167966
18.1457,-0.0598010483008124
18.1458,-0.054970088285342
18.1459,-0.0227636885809941
18.146,-0.0511053202843852
18.1461,-0.0224416245873773
18.1462,-0.0343579923958383
18.1463,-0.0282387764826966
18.1464,0.00267936671278445
18.1465,-0.00311778509074567
18.1466,-0.0185768566691555
18.1467,-0.0179327286837121
18.1468,-0.0211533686135754
18.1469,-0.0324256084206289
18.147,-0.0369345043665922
18.1471,-0.0382227603536066
18.1472,-0.010847320861189
18.1473,-0.0546480242848757
18.1474,-0.0981266650006004
18.1475,-0.0646320083322652
18.1476,-0.0942618968825564
18.1477,-0.107788585343512
18.1478,-0.109398905407356
18.1479,-0.0913633208011315
18.148,-0.0788028245179685
18.1481,-0.0730056724250297
18.1482,-0.0913633208011315
18.1483,-0.100059049063703
18.1484,-0.0920074488187011
18.1485,-0.0981266650006004
18.1486,-0.101347305107288
18.1487,-0.122603530003928
18.1488,-0.144825947307529
18.1489,-0.096194280940221
18.149,-0.104890009233428
18.1491,-0.100381113074485
18.1492,-0.106822393306128
18.1493,-0.118094633785502
18.1494,-0.12389178606916
18.1495,-0.143859755242898
18.1496,-0.141927371115825
18.1497,-0.147402459483457
18.1498,-0.110687161459818
18.1499,-0.096194280940221
18.15,-0.0730056724250297
18.1501,-0.0826675925931112
18.1502,-0.106822393306128
18.1503,-0.118738761815767
18.1504,-0.113907801596377
18.1505,-0.0839558486205165
18.1506,-0.107466521330974
18.1507,-0.088142680717767
18.1508,-0.11229748152713
18.1509,-0.0994149210423657
18.151,-0.112619545540825
18.1511,-0.10650032929382
18.1512,-0.130977194450523
18.1513,-0.0833117206066662
18.1514,-0.116162249696579
18.1515,-0.109720969420356
18.1516,-0.134519898655626
18.1517,-0.129366874360482
18.1518,-0.121315273939954
18.1519,-0.101991433129537
18.152,-0.114551929624618
18.1521,-0.0923295128275983
18.1522,-0.095872216930422
18.1523,-0.0778366325008351
18.1524,-0.0929736408456175
18.1525,-0.0916853848098789
18.1526,-0.104245881209807
18.1527,-0.0878206167098407
18.1528,-0.101991433129537
18.1529,-0.109398905407356
18.153,-0.120993209924156
18.1531,-0.113585737582372
18.1532,-0.131621322487097
18.1533,-0.100703177085344
18.1534,-0.131621322487097
18.1535,-0.108110649356127
18.1536,-0.0749380564533837
18.1537,-0.0707512243952536
18.1538,-0.0569024722896206
18.1539,0.0068661985580778
18.154,0.00525587861884527
18.1541,-0.0121355768265632
18.1542,0.0152398622168018
18.1543,-0.025340200532328
18.1544,-0.0166444727136168
18.1545,-0.0160003447289644
18.1546,-0.0124576408180699
18.1547,-0.0424095923189788
18.1548,-0.0436978483106641
18.1549,-0.076226312473743
18.155,-0.0359683123770484
18.1551,-0.0784807605121841
18.1552,-0.033069736412094
18.1553,0.000746982780572183
18.1554,-0.0379006963567504
18.1555,-0.0414434003259388
18.1556,-0.0311373524385113
18.1557,-0.0137458967847504
18.1558,0.0116971583663427
18.1559,-0.0337138644038304
18.156,-0.025340200532328
18.1561,-0.0333918004079283
18.1562,-0.029849096457475
18.1563,-0.0507832562847613
18.1564,-0.0649540723349335
18.1565,-0.0855661686564371
18.1566,-0.0746159924484762
18.1567,-0.0878206167098407
18.1568,-0.0968384089600454
18.1569,-0.052071512283677
18.157,-0.044019912308758
18.1571,-0.0733277364295736
18.1572,-0.0250181365381776
18.1573,-0.0478846802912893
18.1574,-0.0343579923958383
18.1575,-0.0224416245873773
18.1576,-0.0327476724163276
18.1577,-0.00601636100029866
18.1578,0.00428968665454758
18.1579,-0.0124576408180699
18.158,-0.0379006963567504
18.1581,-0.00988112888784254
18.1582,-0.0295270324623846
18.1583,-0.00440604104990318
18.1584,-0.0082708089335651
18.1585,0.0413270448879695
18.1586,0.0232914618491145
18.1587,0.00847651849573498
18.1588,-0.00182952913261558
18.1589,0.0178163741033293
18.159,0.0297327415274686
18.1591,0.0400387889628256
18.1592,0.0255459097392998
18.1593,0.0268341656752108
18.1594,0.0374622771097021
18.1595,0.0274782936428025
18.1596,-0.005050169029868
18.1597,-0.00762668095230824
18.1598,-0.0185768566691555
18.1599,-0.0388668883475243
18.16,-0.0275946484932561
18.1601,-0.0198651126408357
18.1602,-0.0778366325008351
18.1603,-0.0833117206066662
18.1604,-0.0662423283463238
18.1605,-0.0987707930213316
18.1606,-0.104567945221579
18.1607,-0.105856201269433
18.1608,-0.095872216930422
18.1609,-0.127756554272426
18.161,-0.112941609554596
18.1611,-0.0920074488187011
18.1612,-0.0788028245179685
18.1613,-0.0717174164075799
18.1614,-0.0845999766346627
18.1615,-0.0952280889110499
18.1616,-0.0965163449500955
18.1617,-0.115518121667562
18.1618,-0.096194280940221
18.1619,-0.107466521330974
18.162,-0.0752601204583642
18.1621,-0.118738761815767
18.1622,-0.0845999766346627
18.1623,-0.111009225473126
18.1624,-0.10263556115209
18.1625,-0.102957625163481
18.1626,-0.0952280889110499
18.1627,-0.094583960891979
18.1628,-0.128078618289878
18.1629,-0.0984487290109281
18.163,-0.0862102966713241
18.1631,-0.0826675925931112
18.1632,-0.0655982003404852
18.1633,-0.0990928570318107
18.1634,-0.0887868087338431
18.1635,-0.119382889846344
18.1636,-0.10650032929382
18.1637,-0.0978046009903483
18.1638,-0.120027017877234
18.1639,-0.0691409043761563
18.164,-0.0913633208011315
18.1641,-0.114229865610458
18.1642,-0.0810572725605144
18.1643,-0.088142680717767
18.1644,-0.094583960891979
18.1645,-0.0778366325008351
18.1646,-0.0759042484685438
18.1647,-0.0684967763690227
18.1648,-0.0739718644388794
18.1649,-0.0633437523223077
18.165,-0.076226312473743
18.1651,-0.115518121667562
18.1652,-0.139028794930676
18.1653,-0.153521675922245
18.1654,-0.123569722052734
18.1655,-0.120993209924156
18.1656,-0.136130218752052
18.1657,-0.143537691221516
18.1658,-0.161251212519008
18.1659,-0.194101743596604
18.166,-0.160607084467453
18.1661,-0.173489645562148
18.1662,-0.154809932018398
18.1663,-0.178964734068291
18.1664,-0.184439822599106
18.1665,-0.153521675922245
18.1666,-0.157386444214667
18.1667,-0.143859755242898
18.1668,-0.125180042135652
18.1669,-0.108432713368819
18.167,-0.112619545540825
18.1671,-0.0971604729700708
18.1672,-0.149334843618827
18.1673,-0.130977194450523
18.1674,-0.116806377725909
18.1675,-0.121959401971784
18.1676,-0.141283243074115
18.1677,-0.0929736408456175
18.1678,-0.0913633208011315
18.1679,-0.124213850085665
18.168,-0.153199611898412
18.1681,-0.117772569770487
18.1682,-0.0920074488187011
18.1683,-0.111331289486511
18.1684,-0.0903971287753382
18.1685,-0.0907191927838612
18.1686,-0.11229748152713
18.1687,-0.10263556115209
18.1688,-0.0678526483621775
18.1689,-0.088142680717767
18.169,-0.0878206167098407
18.1691,-0.101347305107288
18.1692,-0.103279689174948
18.1693,-0.109720969420356
18.1694,-0.105856201269433
18.1695,-0.0807352085542159
18.1696,-0.0581907282938862
18.1697,-0.0620554963134935
18.1698,-0.0826675925931112
18.1699,-0.0810572725605144
18.17,-0.0691409043761563
18.1701,-0.0581907282938862
18.1702,-0.0604451763040798
18.1703,-0.0562583442879121
18.1704,-0.033069736412094
18.1705,-0.0224416245873773
18.1706,-0.0511053202843852
18.1707,-0.0324256084206289
18.1708,-0.0185768566691555
18.1709,-0.0201871766339212
18.171,-0.00923700090593675
18.1711,-0.0259843285208296
18.1712,-0.0285608404775176
18.1713,-0.0391889523445859
18.1714,-0.0417654643235499
18.1715,-0.046596424296002
18.1716,-0.0359683123770484
18.1717,-0.0681747123655641
18.1718,-0.0443419763069211
18.1719,-0.0169665367060418
18.172,-0.0350021203881182
18.1721,-0.0230857525746774
18.1722,-0.0372565683632432
18.1723,-0.0301711604526329
18.1724,-0.0459522962987751
18.1725,-0.0588348562964439
18.1726,-0.0436978483106641
18.1727,0.00396762266632177
18.1728,-0.0163224087212577
18.1729,0.0203928859859082
18.173,-0.00150746514324332
18.1731,-0.044019912308758
18.1732,-0.0292049684673616
18.1733,-0.0282387764826966
18.1734,-0.00408397706001734
18.1735,-0.00923700090593675
18.1736,-0.00698255297131041
18.1737,0.0303768694939732
18.1738,-0.024696072544094
18.1739,-0.051749448283843
18.174,-0.0227636885809941
18.1741,0.0107309664058177
18.1742,0.00879858248307781
18.1743,0.0113750943795635
18.1744,-0.0063384249905713
18.1745,-0.005050169029868
18.1746,-0.015356216744575
18.1747,-0.0185768566691555
18.1748,-0.0340359283998004
18.1749,-0.0214754326069262
18.175,-0.0172886006985326
18.1751,-0.0314594164339392
18.1752,0.00751032653332944
18.1753,-0.0333918004079283
18.1754,-0.0188989206619764
18.1755,-0.0282387764826966
18.1756,-0.0292049684673616
18.1757,-0.0169665367060418
18.1758,0.0152398622168018
18.1759,0.00976477444472974
18.176,-0.0147120887604484
18.1761,0.0377843410915498
18.1762,0.0786864663174879
18.1763,0.0735334427169
18.1764,0.0709569309113366
18.1765,0.0783644023428606
18.1766,0.0761099545189438
18.1767,0.0744996346430778
18.1768,0.0677362911494026
18.1769,0.068058355125846
18.177,0.0493786443988776
18.1771,0.0451918126577598
18.1772,0.0290886135607231
18.1773,0.0377843410915498
18.1774,0.0603288196757559
18.1775,0.0590405637642535
18.1776,0.081262978112552
18.1777,0.05614198796005
18.1778,0.0474462605195827
18.1779,0.0625832675187084
18.178,0.0957558568958862
18.1781,0.100264752495594
18.1782,0.104451584114805
18.1783,0.0877042575851178
18.1784,0.0909248973133879
18.1785,0.0928572811478083
18.1786,0.0870601296388255
18.1787,0.102519200291636
18.1788,0.0960779208676327
18.1789,0.0770761464438069
18.179,0.05614198796005
18.1791,0.0793305942665794
18.1792,0.0600067556979653
18.1793,0.0355298932173687
18.1794,0.0358519571995729
18.1795,0.0335975093228908
18.1796,0.0268341656752108
18.1797,0.00525587861884527
18.1798,-0.0234078165684273
18.1799,-0.0282387764826966
18.18,-0.0121355768265632
18.1801,-0.0494950002869649
18.1802,-0.0684967763690227
18.1803,-0.109076841394434
18.1804,-0.0713953524033987
18.1805,-0.0990928570318107
18.1806,-0.100059049063703
18.1807,-0.0981266650006004
18.1808,-0.121637337955829
18.1809,-0.101347305107288
18.181,-0.0607672403058201
18.1811,-0.0430537203146834
18.1812,-0.0617334323114683
18.1813,-0.0704291603912896
18.1814,-0.0788028245179685
18.1815,-0.089108872741993
18.1816,-0.103279689174948
18.1817,-0.108432713368819
18.1818,-0.108110649356127
18.1819,-0.0894309367502173
18.182,-0.14418181926436
18.1821,-0.136130218752052
18.1822,-0.112619545540825
18.1823,-0.101347305107288
18.1824,-0.0955501529206983
18.1825,-0.118416697800595
18.1826,-0.139028794930676
18.1827,-0.154165803970157
18.1828,-0.16286153264935
18.1829,-0.133553706598731
18.183,-0.111653353499973
18.1831,-0.128078618289878
18.1832,-0.123247658036387
18.1833,-0.149012779596061
18.1834,-0.168980749163715
18.1835,-0.157064380189844
18.1836,-0.177998541977185
18.1837,-0.169302813191626
18.1838,-0.115518121667562
18.1839,-0.116806377725909
18.184,-0.159962956416232
18.1841,-0.125502106152472
18.1842,-0.139028794930676
18.1843,-0.132587514542555
18.1844,-0.142893563178997
18.1845,-0.137418474830636
18.1846,-0.157064380189844
18.1847,-0.147724523505814
18.1848,-0.168980749163715
18.1849,-0.168980749163715
18.185,-0.172523453475376
18.1851,-0.161251212519008
18.1852,-0.141927371115825
18.1853,-0.130977194450523
18.1854,-0.144825947307529
18.1855,-0.147402459483457
18.1856,-0.145470075351022
18.1857,-0.147402459483457
18.1858,-0.140961179053382
18.1859,-0.120027017877234
18.186,-0.106822393306128
18.1861,-0.0829896565998518
18.1862,-0.0865323606788788
18.1863,-0.0704291603912896
18.1864,-0.0646320083322652
18.1865,-0.0726836084205584
18.1866,-0.094583960891979
18.1867,-0.0778366325008351
18.1868,-0.0884647447257678
18.1869,-0.131621322487097
18.187,-0.12840068230741
18.1871,-0.0978046009903483
18.1872,-0.110365097446587
18.1873,-0.136452282771578
18.1874,-0.120993209924156
18.1875,-0.15384373994616
18.1876,-0.192813487459093
18.1877,-0.175744093767584
18.1878,-0.155131996042643
18.1879,-0.168980749163715
18.188,-0.147724523505814
18.1881,-0.181541246315001
18.1882,-0.139028794930676
18.1883,-0.134197834636581
18.1884,-0.180252990190962
18.1885,-0.155776124091379
18.1886,-0.155131996042643
18.1887,-0.168658685135888
18.1888,-0.139994986991666
18.1889,-0.138706730910507
18.189,-0.148046587528253
18.1891,-0.135486090713241
18.1892,-0.144825947307529
18.1893,-0.136774346791184
18.1894,-0.0971604729700708
18.1895,-0.135164026693956
18.1896,-0.13001100239626
18.1897,-0.0784807605121841
18.1898,-0.0730056724250297
18.1899,-0.0994149210423657
18.19,-0.11229748152713
18.1901,-0.123247658036387
18.1902,-0.0884647447257678
18.1903,-0.0684967763690227
18.1904,-0.0675305843588629
18.1905,-0.0784807605121841
18.1906,-0.0820234645798514
18.1907,-0.0668864563524495
18.1908,-0.0610893043076317
18.1909,-0.0649540723349335
18.191,-0.0810572725605144
18.1911,-0.0810572725605144
18.1912,-0.0968384089600454
18.1913,-0.118738761815767
18.1914,-0.121637337955829
18.1915,-0.112619545540825
18.1916,-0.0688188403725535
18.1917,-0.0739718644388794
18.1918,-0.0794469525297573
18.1919,-0.0768704404843605
18.192,-0.114873993638855
18.1921,-0.125180042135652
18.1922,-0.113263673568446
18.1923,-0.102313497140776
18.1924,-0.114551929624618
18.1925,-0.0894309367502173
18.1926,-0.0707512243952536
18.1927,-0.0826675925931112
18.1928,-0.0594789842992852
18.1929,-0.0746159924484762
18.193,-0.0726836084205584
18.1931,-0.105212073245353
18.1932,-0.0868544246865078
18.1933,-0.0733277364295736
18.1934,-0.119382889846344
18.1935,-0.0733277364295736
18.1936,-0.0871764886942111
18.1937,-0.0823455285864444
18.1938,-0.0672085203556203
18.1939,-0.0920074488187011
18.194,-0.0842779126275526
18.1941,-0.0697850323835785
18.1942,-0.0894309367502173
18.1943,-0.103923817198111
18.1944,-0.0900750647668899
18.1945,-0.102957625163481
18.1946,-0.0672085203556203
18.1947,-0.0884647447257678
18.1948,-0.108754777381588
18.1949,-0.0746159924484762
18.195,-0.0730056724250297
18.1951,-0.0604451763040798
18.1952,-0.0572245362905809
18.1953,-0.095872216930422
18.1954,-0.0536818322838991
18.1955,-0.0723615444161597
18.1956,-0.0572245362905809
18.1957,-0.0581907282938862
18.1958,-0.0617334323114683
18.1959,-0.0572245362905809
18.196,-0.10650032929382
18.1961,-0.0675305843588629
18.1962,-0.0684967763690227
18.1963,-0.0491729362876903
18.1964,-0.06237756031559
18.1965,-0.0581907282938862
18.1966,-0.0662423283463238
18.1967,-0.0498170642863092
18.1968,-0.0340359283998004
18.1969,-0.0185768566691555
18.197,-0.0314594164339392
18.1971,-0.0559362802871637
18.1972,-0.0379006963567504
18.1973,-0.0581907282938862
18.1974,-0.0585127922951296
18.1975,-0.0427316563167966
18.1976,-0.0343579923958383
18.1977,-0.0143900247684835
18.1978,-0.0182547926764008
18.1979,-0.0156782807367368
18.198,-0.0118135128351218
18.1981,0.0120192223530595
18.1982,0.0252238457551702
18.1983,0.0258679737233686
18.1984,0.0265121016913241
18.1985,0.0239355898180435
18.1986,0.0129854143128355
18.1987,0.0258679737233686
18.1988,0.00815445450832934
18.1989,0.0458359406185721
18.199,0.00879858248307781
18.1991,0.0229693978645585
18.1992,0.0123412863397138
18.1993,0.0271562296590369
18.1994,0.0226473338799413
18.1995,0.0139516062720511
18.1996,-0.000863337164690781
18.1997,0.0107309664058177
18.1998,-0.00537223301994706
18.1999,-0.0269505205040843
18.2,-0.0742274897818709
18.2001,-0.0703627217277771
18.2002,-0.0539374576133629
18.2003,-0.0658538256778379
18.2004,-0.0578022256236168
18.2005,-0.0326812337364155
18.2006,-0.0607008016380016
18.2007,-0.0938733942204662
18.2008,-0.0500726896132485
18.2009,-0.0739054257769633
18.201,-0.0494285616142105
18.2011,-0.0474961776187723
18.2012,-0.0494285616142105
18.2013,-0.0539374576133629
18.2014,-0.0903306901209462
18.2015,-0.0185104179833505
18.2016,-0.0326812337364155
18.2017,-0.0288164657908718
18.2018,-0.00337341038850453
18.2019,-0.00917056221632973
18.202,-0.0117470741465571
18.2021,-0.0243075698666647
18.2022,-0.0307488497624264
18.2023,-0.0761598738128477
18.2024,-0.10933246676192
18.2025,-0.113841362953105
18.2026,-0.123825347430736
18.2027,-0.146047764767473
18.2028,-0.132521075908413
18.2029,-0.119638515221283
18.203,-0.134453460022443
18.2031,-0.144437444657722
18.2032,-0.135419652080539
18.2033,-0.0980602263498188
18.2034,-0.101924994480577
18.2035,-0.0871100500383278
18.2036,-0.0777701938406713
18.2037,-0.0288164657908718
18.2038,-0.0436314096354083
18.2039,-0.084211473970334
18.204,-0.0813128979083386
18.2041,-0.0668200176873501
18.2042,-0.0507168176125663
18.2043,-0.0352577457055356
18.2044,-0.0558698416172182
18.2045,-0.0674641456940513
18.2046,-0.0900086261123484
18.2047,-0.0681082737010407
18.2048,-0.0584463536263162
18.2049,-0.0784143218523134
18.205,-0.0755157458022302
18.2051,-0.0697185937197768
18.2052,-0.0977381623394153
18.2053,-0.0780922578464557
18.2054,-0.0945175222395371
18.2055,-0.0987043543708529
18.2056,-0.0922630741741047
18.2057,-0.0919410101650576
18.2058,-0.0922630741741047
18.2059,-0.109654530775074
18.206,-0.102247058491968
18.2061,-0.113841362953105
18.2062,-0.0829232179420416
18.2063,-0.0726171697580607
18.2064,-0.0468520496208504
18.2065,-0.0803467058890015
18.2066,-0.0987043543708529
18.2067,-0.0784143218523134
18.2068,-0.0739054257769633
18.2069,-0.0661758896809367
18.207,-0.0642435056634207
18.2071,-0.0887203700787045
18.2072,-0.02946059378112
18.2073,-0.0204428019420626
18.2074,-0.00756024226205229
18.2075,-0.0120691381381291
18.2076,-0.0491064976147964
18.2077,-0.0520050736120424
18.2078,-0.0735833617721286
18.2079,-0.0500726896132485
18.208,-0.0706847857318859
18.2081,-0.10514563459792
18.2082,-0.0996705464029725
18.2083,-0.104179442561915
18.2084,-0.114485490981656
18.2085,-0.116739939084036
18.2086,-0.0748716177919047
18.2087,-0.061989057646245
18.2088,-0.053615393612967
18.2089,-0.0400887056594102
18.209,-0.039122513667402
18.2091,-0.0420210896452838
18.2092,-0.0500726896132485
18.2093,-0.0510388816123302
18.2094,-0.0558698416172182
18.2095,-0.0761598738128477
18.2096,-0.0832452819490037
18.2097,-0.114163426967342
18.2098,-0.120604707268441
18.2099,-0.112553106896933
18.21,-0.0893644980953771
18.2101,-0.110942786828461
18.2102,-0.0780922578464557
18.2103,-0.0539374576133629
18.2104,-0.0510388816123302
18.2105,-0.0313929777534852
18.2106,-0.0516830096120682
18.2107,-0.0188324819763036
18.2108,-0.0291385297859622
18.2109,-0.0397666416620054
18.211,-0.0906527541296187
18.2111,-0.0993484823921901
18.2112,-0.0735833617721286
18.2113,-0.113197234924864
18.2114,-0.132199011889687
18.2115,-0.102247058491968
18.2116,-0.108044210710075
18.2117,-0.127045987600913
18.2118,-0.151200789132391
18.2119,-0.0993484823921901
18.212,-0.0970940343188355
18.2121,-0.124469475464139
18.2122,-0.0977381623394153
18.2123,-0.0819570259215984
18.2124,-0.0626331856507949
18.2125,-0.0481403056169727
18.2126,-0.0404107696568837
18.2127,-0.0284944017958488
18.2128,-0.0645655696661607
18.2129,-0.0339694897204314
18.213,-0.0574801616223734
18.2131,-0.0491064976147964
18.2132,-0.0297826577763453
18.2133,-0.0600566736343073
18.2134,-0.0449196656287529
18.2135,-0.112231042883084
18.2136,-0.103535314538294
18.2137,-0.096449906298558
18.2138,-0.0716509777446469
18.2139,-0.00208515442960411
18.214,-0.0107808821722328
18.2141,-0.00691611428079543
18.2142,-0.0101367541896762
18.2143,-0.0169000980195766
18.2144,-0.0127132661214694
18.2145,-0.000796898471730506
18.2146,-0.016255970034529
18.2147,-0.0207648659354134
18.2148,-0.0416990256474659
18.2149,-0.0197986739555601
18.215,-0.0204428019420626
18.2151,-0.0062719862997976
18.2152,-0.0107808821722328
18.2153,-0.00820437024356849
18.2154,-0.00337341038850453
18.2155,0.00983121314187066
18.2156,0.001457549452085
18.2157,0.00371199737277678
18.2158,0.00435612534954538
18.2159,-0.0230193138907311
18.216,-0.0545815856143659
18.2161,-0.0265620178271238
18.2162,-0.0565139696190681
18.2163,-0.0375121936820938
18.2164,-0.0384783856730731
18.2165,-0.0349356817091574
18.2166,-0.0265620178271238
18.2167,-0.00723817827139146
18.2168,0.00371199737277678
18.2169,-0.0397666416620054
18.217,-0.0829232179420416
18.2171,-0.0677862096975099
18.2172,-0.0481403056169727
18.2173,-0.0265620178271238
18.2174,-0.0462079216232067
18.2175,-0.0687524017083185
18.2176,-0.0607008016380016
18.2177,-0.0449196656287529
18.2178,-0.0220531219094813
18.2179,-0.0146456500730622
18.218,-0.0178662899976427
18.2181,-0.0297826577763453
18.2182,-0.0404107696568837
18.2183,-0.0780922578464557
18.2184,-0.0787363858582445
18.2185,-0.0500726896132485
18.2186,-0.0632773136556306
18.2187,-0.0558698416172182
18.2188,-0.0204428019420626
18.2189,0.0111194690903638
18.219,-0.00594992230939573
18.2191,-0.0259178898380862
18.2192,-0.0635993776581557
18.2193,-0.0458858576244891
18.2194,-0.0114250101550504
18.2195,-0.0136794580969707
18.2196,-0.0117470741465571
18.2197,-0.00820437024356849
18.2198,-0.0214089939223144
18.2199,-0.0265620178271238
18.22,-0.0181883539904635
18.2201,-0.00723817827139146
18.2202,0.0207813886723139
18.2203,-0.0185104179833505
18.2204,-0.0681082737010407
18.2205,-0.0722951057535168
18.2206,-0.0635993776581557
18.2207,-0.0526492016122014
18.2208,-0.0626331856507949
18.2209,-0.0574801616223734
18.221,-0.0587684176277724
18.2211,-0.0178662899976427
18.2212,-0.0397666416620054
18.2213,-0.0449196656287529
18.2214,-0.0520050736120424
18.2215,-0.0487844336154521
18.2216,-0.0468520496208504
18.2217,-0.0526492016122014
18.2218,-0.0320371057448148
18.2219,-0.0532933296126415
18.222,-0.096449906298558
18.2221,-0.0697185937197768
18.2222,-0.0394445776646694
18.2223,-0.0603787376361189
18.2224,-0.084211473970334
18.2225,-0.0565139696190681
18.2226,-0.016255970034529
18.2227,-0.0281723378008931
18.2228,0.0017796134409462
18.2229,-0.00433960235835519
18.223,-0.00820437024356849
18.2231,0.0269006043788895
18.2232,0.0320536281147915
18.2233,0.0449361873876161
18.2234,0.0581408105451113
18.2235,0.0681247938444163
18.2236,0.0269006043788895
18.2237,0.0265785403948814
18.2238,0.0297991802322359
18.2239,0.0104753411162426
18.224,-0.000152770493177967
18.2241,-0.0197986739555601
18.2242,-0.0413769616497171
18.2243,-0.0317150417491161
18.2244,-0.0223751859031646
18.2245,-0.0529712656123863
18.2246,-0.0558698416172182
18.2247,-0.0523271376120868
18.2248,-0.0681082737010407
18.2249,-0.0793805138703268
18.225,-0.0542595216138292
18.2251,-0.0565139696190681
18.2252,-0.0983822903602979
18.2253,-0.0922630741741047
18.2254,-0.112553106896933
18.2255,-0.0938733942204662
18.2256,-0.0616669936440771
18.2257,-0.103535314538294
18.2258,-0.0755157458022302
18.2259,-0.0635993776581557
18.226,-0.0916189461560855
18.2261,-0.0809908339018192
18.2262,-0.0635993776581557
18.2263,-0.0912968821471883
18.2264,-0.121248835300271
18.2265,-0.0958057782785827
18.2266,-0.0616669936440771
18.2267,-0.0616669936440771
18.2268,-0.0529712656123863
18.2269,-0.0404107696568837
18.227,-0.0330032977323176
18.2271,-0.0304267857669985
18.2272,-0.0394445776646694
18.2273,-0.0523271376120868
18.2274,-0.0346136177128473
18.2275,-0.0320371057448148
18.2276,-0.02946059378112
18.2277,-0.0381563216760115
18.2278,-0.0220531219094813
18.2279,-0.0301047217716381
18.228,-0.0568360336200991
18.2281,-0.0520050736120424
18.2282,-0.0558698416172182
18.2283,-0.0700406577237408
18.2284,-0.0449196656287529
18.2285,-0.0197986739555601
18.2286,-0.0014410264505391
18.2287,-0.0165780340270198
18.2288,-0.0243075698666647
18.2289,-0.0239855058725812
18.229,-0.0433093456372452
18.2291,-0.0349356817091574
18.2292,-0.0246296338608152
18.2293,-0.0117470741465571
18.2294,-0.0313929777534852
18.2295,0.0323756920977731
18.2296,0.0252902844582414
18.2297,0.00661057326624045
18.2298,-0.00433960235835519
18.2299,-0.0262399538325715
18.23,-0.025595825843668
18.2301,-0.0104588181809219
18.2302,-0.00981469019849561
18.2303,-0.0529712656123863
18.2304,-0.0555477776163993
18.2305,-0.0317150417491161
18.2306,-0.0210869299288307
18.2307,-0.0275282098111837
18.2308,-0.0169000980195766
18.2309,-0.0481403056169727
18.231,-0.0243075698666647
18.2311,-0.0236634418785644
18.2312,-0.0243075698666647
18.2313,-0.00176309044003954
18.2314,0.021103452657421
18.2315,0.0806852888869665
18.2316,0.0613614503250028
18.2317,0.0471906352506639
18.2318,0.0124077250378555
18.2319,-0.011102946163609
18.232,-0.0130353301132376
18.2321,-0.0378342576790184
18.2322,-0.0336474257243255
18.2323,-0.0281723378008931
18.2324,-0.0503947536128724
18.2325,-0.0178662899976427
18.2326,-0.00176309044003954
18.2327,0.029155052265249
18.2328,0.0368845878532305
18.2329,0.0288329882816649
18.233,0.0362404598888815
18.2331,0.0372066518353157
18.2332,0.0404272916529049
18.2333,0.021103452657421
18.2334,0.0201372607019154
18.2335,0.0475126992308659
18.2336,0.0752102013145906
18.2337,0.0784308410649555
18.2338,0.0668365379378624
18.2339,0.0269006043788895
18.234,0.0439699954454329
18.2341,0.0475126992308659
18.2342,0.0165945568603177
18.2343,0.0410714196157128
18.2344,0.049123019131004
18.2345,0.0591070024796748
18.2346,0.0265785403948814
18.2347,0.0339860120117816
18.2348,0.0484788911711231
18.2349,0.0439699954454329
18.235,0.0365625238710857
18.2351,0.031087436165486
18.2352,0.0339860120117816
18.2353,0.0510554030092557
18.2354,0.0446141234069469
18.2355,0.0146621729435639
18.2356,0.0136959809843483
18.2357,-0.0191545459693228
18.2358,-0.0555477776163993
18.2359,-0.0416990256474659
18.236,-0.0416990256474659
18.2361,-0.0143235860809661
18.2362,-0.0523271376120868
18.2363,-0.0462079216232067
18.2364,-0.0342915537166054
18.2365,-0.0574801616223734
18.2366,-0.0507168176125663
18.2367,-0.0352577457055356
18.2368,-0.039122513667402
18.2369,-0.0645655696661607
18.237,-0.0458858576244891
18.2371,-0.107722146697306
18.2372,-0.0838894099631499
18.2373,-0.103213250526598
18.2374,-0.0507168176125663
18.2375,-0.0388004496702032
18.2376,-0.0516830096120682
18.2377,-0.102247058491968
18.2378,-0.115129619010519
18.2379,-0.086143858014995
18.238,-0.0594125456308977
18.2381,-0.0832452819490037
18.2382,-0.0616669936440771
18.2383,-0.0803467058890015
18.2384,-0.0616669936440771
18.2385,-0.0793805138703268
18.2386,-0.0729392337626773
18.2387,-0.0423431536431706
18.2388,-0.0645655696661607
18.2389,-0.10450150657384
18.239,-0.062955249653177
18.2391,-0.085821794007366
18.2392,-0.0719730417490456
18.2393,-0.0397666416620054
18.2394,-0.0742274897818709
18.2395,-0.0716509777446469
18.2396,-0.0980602263498188
18.2397,-0.0935513302110436
18.2398,-0.087754178054255
18.2399,-0.0639214416607524
18.24,-0.0587684176277724
18.2401,-0.0684303377046435
18.2402,-0.0687524017083185
18.2403,-0.0697185937197768
18.2404,-0.0471741136197765
18.2405,-0.0445976016303129
18.2406,-0.0291385297859622
18.2407,-0.0181883539904635
18.2408,-0.0362239376950793
18.2409,-0.0623111216484842
18.241,-0.0664979536841074
18.2411,-0.0590904816292995
18.2412,-0.0497506256136946
18.2413,-0.0677862096975099
18.2414,-0.0561919056181078
18.2415,-0.0581242896249311
18.2416,-0.0246296338608152
18.2417,-0.0133573941050714
18.2418,-0.0439534736336406
18.2419,-0.0233413778846144
18.242,-0.0201207379487782
18.2421,-0.0194766099624083
18.2422,0.0214255166424668
18.2423,-0.00852643423442394
18.2424,-0.000152770493177967
18.2425,-0.00272928240892581
18.2426,-0.0278502738060048
18.2427,-0.0304267857669985
18.2428,0.0220696446123742
18.2429,-0.0181883539904635
18.243,-0.0458858576244891
18.2431,-0.0304267857669985
18.2432,-0.0214089939223144
18.2433,-0.02946059378112
18.2434,-0.015933906042104
18.2435,-0.0101367541896762
18.2436,-0.0288164657908718
18.2437,-0.0420210896452838
18.2438,-0.0542595216138292
18.2439,-0.0484623696161775
18.244,-0.0317150417491161
18.2441,-0.00369547437839036
18.2442,0.0185269407748421
18.2443,-0.0146456500730622
18.2444,-0.0156118420497449
18.2445,0.0207813886723139
18.2446,0.0275447323467236
18.2447,0.0636158981675602
18.2448,0.0726336895103494
18.2449,0.0800411609380922
18.245,0.104840086815918
18.2451,0.0658703460073603
18.2452,0.0987208713685282
18.2453,0.0977546794540716
18.2454,0.0761763932402746
18.2455,0.0935678478193211
18.2456,0.0832618006802981
18.2457,0.0729557534860723
18.2458,0.0871265683638326
18.2459,0.0874486323371122
18.246,0.10870485445734
18.2461,0.0996870632825163
18.2462,0.0993649993112389
18.2463,0.0880927602835111
18.2464,0.0465465072900849
18.2465,0.0252902844582414
18.2466,0.033341884046358
18.2467,0.0359183959066177
18.2468,0.0468685712704035
18.2469,0.0616835143026803
18.247,0.0690909857737465
18.2471,0.0620055782803014
18.2472,0.0452582513682267
18.2473,0.0304433081989815
18.2474,0.000491357485118776
18.2475,0.0507333390296917
18.2476,0.043003803502722
18.2477,0.0365625238710857
18.2478,0.0262564764108126
18.2479,0.0397831636898608
18.248,0.0278667963305498
18.2481,0.0217475806274511
18.2482,0.00242374141847748
18.2483,0.0140180449708157
18.2484,0.0107974051033345
18.2485,0.031087436165486
18.2486,0.0436479314645879
18.2487,0.0520215949476009
18.2488,0.0246461564895563
18.2489,0.0285109242980204
18.249,0.0349522039594684
18.2491,0.0346301399769659
18.2492,0.062649706235374
18.2493,0.0520215949476009
18.2494,0.0684468578209154
18.2495,0.0752102013145906
18.2496,0.0288329882816649
18.2497,0.0581408105451113
18.2498,0.0523436589269339
18.2499,0.0558863626958021
18.25,0.0568525546315628
18.2501,0.0317315641317498
18.2502,0.0378507797993079
18.2503,0.0275447323467236
18.2504,0.0394610997082501
18.2505,0.0326977560806947
18.2506,0.0394610997082501
18.2507,0.0104753411162426
18.2508,0.0272226683628369
18.2509,0.0304433081989815
18.251,0.0182048767892425
18.2511,0.0401052276714124
18.2512,0.0459023793292726
18.2513,0.0401052276714124
18.2514,0.0497671470906529
18.2515,0.0703792416787416
18.2516,0.0810073528613223
18.2517,0.0607173223694781
18.2518,0.0967884875391455
18.2519,0.0913134000123124
18.252,0.0607173223694781
18.2521,0.0285109242980204
18.2522,0.0343080759944037
18.2523,0.0384949077630626
18.2524,0.0304433081989815
18.2525,0.0191710687458562
18.2526,0.00564438130232212
18.2527,-0.00433960235835519
18.2528,0.0127297890245723
18.2529,-0.00723817827139146
18.253,0.00854295719237365
18.2531,-0.00917056221632973
18.2532,-0.00949262620738013
18.2533,0.0017796134409462
18.2534,-0.00949262620738013
18.2535,0.00886502117984216
18.2536,0.0111194690903638
18.2537,0.00757676522959061
18.2538,0.00564438130232212
18.2539,0.0120856610510763
18.254,0.043003803502722
18.2541,0.0233579005514542
18.2542,0.0323756920977731
18.2543,0.0355963319242942
18.2544,0.0391390357265802
18.2545,-0.0014410264505391
18.2546,-0.0014410264505391
18.2547,-0.0243075698666647
18.2548,-0.0706847857318859
18.2549,-0.0607008016380016
18.255,-0.0697185937197768
18.2551,-0.122859155381221
18.2552,-0.121570899316304
18.2553,-0.125757731531894
18.2554,-0.11287517091086
18.2555,-0.0867879860304758
18.2556,-0.109010402748843
18.2557,-0.0729392337626773
18.2558,-0.0893644980953771
18.2559,-0.113841362953105
18.256,-0.0668200176873501
18.2561,-0.0896865621038254
18.2562,-0.120282643252643
18.2563,-0.103857378550067
18.2564,-0.084211473970334
18.2565,-0.102891186514979
18.2566,-0.122537091364874
18.2567,-0.113197234924864
18.2568,-0.112553106896933
18.2569,-0.103535314538294
18.257,-0.0954837142687082
18.2571,-0.0780922578464557
18.2572,-0.0838894099631499
18.2573,-0.0800246418827031
18.2574,-0.094195458229964
18.2575,-0.110298658801613
18.2576,-0.103857378550067
18.2577,-0.0935513302110436
18.2578,-0.0993484823921901
18.2579,-0.102247058491968
18.258,-0.133487267965068
18.2581,-0.107078018671999
18.2582,-0.0916189461560855
18.2583,-0.0739054257769633
18.2584,-0.0977381623394153
18.2585,-0.106111826634615
18.2586,-0.0890424340870035
18.2587,-0.0919410101650576
18.2588,-0.0690744657120657
18.2589,-0.0616669936440771
18.259,-0.0500726896132485
18.2591,-0.0603787376361189
18.2592,-0.0851776659923307
18.2593,-0.100958802446862
18.2594,-0.109976594788305
18.2595,-0.109976594788305
18.2596,-0.0925851381832268
18.2597,-0.0806687698953736
18.2598,-0.0893644980953771
18.2599,-0.0887203700787045
18.26,-0.0648876336689724
18.2601,-0.0565139696190681
18.2602,-0.0851776659923307
18.2603,-0.0433093456372452
18.2604,-0.0684303377046435
18.2605,-0.0652096976718558
18.2606,-0.0883983060704801
18.2607,-0.0816349619149316
18.2608,-0.094195458229964
18.2609,-0.0838894099631499
18.261,-0.075193681797031
18.2611,-0.0983822903602979
18.2612,-0.113197234924864
18.2613,-0.111586914855617
18.2614,-0.122859155381221
18.2615,-0.120926771284317
18.2616,-0.128656307688969
18.2617,-0.101280866458024
18.2618,-0.0900086261123484
18.2619,-0.124791539480959
18.262,-0.11287517091086
18.2621,-0.131554883852476
18.2622,-0.143471252592847
18.2623,-0.127690115635897
18.2624,-0.0896865621038254
18.2625,-0.115129619010519
18.2626,-0.128656307688969
18.2627,-0.142505060528703
18.2628,-0.156031749493591
18.2629,-0.169558438604352
18.263,-0.205629610301371
18.2631,-0.17664384724536
18.2632,-0.166981926381399
18.2633,-0.172457014861627
18.2634,-0.143793316614391
18.2635,-0.186949896251438
18.2636,-0.148946340970162
18.2637,-0.146047764767473
18.2638,-0.163761286110265
18.2639,-0.115451683025067
18.264,-0.0999926104138309
18.2641,-0.128334243671199
18.2642,-0.107722146697306
18.2643,-0.0845335379775921
18.2644,-0.108366274722921
18.2645,-0.0816349619149316
18.2646,-0.0787363858582445
18.2647,-0.0974160983290876
18.2648,-0.0893644980953771
18.2649,-0.0768040018237576
18.265,-0.0787363858582445
18.2651,-0.0809908339018192
18.2652,-0.119960579236924
18.2653,-0.0864659220226982
18.2654,-0.107078018671999
18.2655,-0.117062003098974
18.2656,-0.130266627779011
18.2657,-0.139606484340644
18.2658,-0.118672323174831
18.2659,-0.129944563760843
18.266,-0.143793316614391
18.2661,-0.167626054436632
18.2662,-0.148946340970162
18.2663,-0.193069112890583
18.2664,-0.166659862353908
18.2665,-0.183407191895682
18.2666,-0.207561994530327
18.2667,-0.166015734299178
18.2668,-0.152811109250732
18.2669,-0.158930325719233
18.267,-0.129622499742755
18.2671,-0.118350259159503
18.2672,-0.134775524041728
18.2673,-0.127368051618365
18.2674,-0.133809331984113
18.2675,-0.137029972178971
18.2676,-0.103535314538294
18.2677,-0.0864659220226982
18.2678,-0.0623111216484842
18.2679,-0.0777701938406713
18.268,-0.0768040018237576
18.2681,-0.0777701938406713
18.2682,-0.0706847857318859
18.2683,-0.094195458229964
18.2684,-0.117706131129082
18.2685,-0.0874321140462542
18.2686,-0.0655317616748109
18.2687,-0.0996705464029725
18.2688,-0.0800246418827031
18.2689,-0.086143858014995
18.269,-0.0771260658293223
18.2691,-0.0616669936440771
18.2692,-0.0800246418827031
18.2693,-0.0713289137403207
18.2694,-0.0797025778764782
18.2695,-0.0896865621038254
18.2696,-0.0819570259215984
18.2697,-0.0912968821471883
18.2698,-0.127045987600913
18.2699,-0.10450150657384
18.27,-0.102569122503435
18.2701,-0.10514563459792
18.2702,-0.115451683025067
18.2703,-0.0993484823921901
18.2704,-0.115451683025067
18.2705,-0.0719730417490456
18.2706,-0.0581242896249311
18.2707,-0.0565139696190681
18.2708,-0.0925851381832268
18.2709,-0.061989057646245
18.271,-0.0880762420623303
18.2711,-0.0932292662016962
18.2712,-0.0803467058890015
18.2713,-0.0632773136556306
18.2714,-0.0520050736120424
18.2715,-0.0558698416172182
18.2716,-0.0349356817091574
18.2717,-0.025595825843668
18.2718,-0.0494285616142105
18.2719,-0.0429872816391513
18.272,-0.00723817827139146
18.2721,-0.00272928240892581
18.2722,-0.0207648659354134
18.2723,-0.0114250101550504
18.2724,0.0053223173142229
18.2725,0.0285109242980204
18.2726,0.0124077250378555
18.2727,-0.00659405029026416
18.2728,-0.00111896246110277
18.2729,0.0120856610510763
18.273,0.0172386848320731
18.2731,-0.000796898471730506
18.2732,-0.0226972498969145
18.2733,-0.0288164657908718
18.2734,-0.0284944017958488
18.2735,-0.0803467058890015
18.2736,-0.109654530775074
18.2737,-0.134453460022443
18.2738,-0.129300435724747
18.2739,-0.0848556019849243
18.274,-0.0639214416607524
18.2741,-0.0368680656884499
18.2742,-0.0330032977323176
18.2743,-0.0239855058725812
18.2744,-0.0236634418785644
18.2745,-0.0474961776187723
18.2746,-0.0561919056181078
18.2747,-0.0426652176411264
18.2748,-0.040732833654426
18.2749,-0.0523271376120868
18.275,-0.0768040018237576
18.2751,-0.0497506256136946
18.2752,-0.0552257136156509
18.2753,-0.0268840818217433
18.2754,0.00789882921724792
18.2755,-0.00594992230939573
18.2756,-0.0246296338608152
18.2757,-0.0520050736120424
18.2758,-0.0178662899976427
18.2759,-0.00917056221632973
18.276,-0.0223751859031646
18.2761,-0.0133573941050714
18.2762,-0.0214089939223144
18.2763,-0.0014410264505391
18.2764,-0.0188324819763036
18.2765,-0.0491064976147964
18.2766,-0.0275282098111837
18.2767,-0.0236634418785644
18.2768,-0.0291385297859622
18.2769,-0.0371901296852376
18.277,-0.0700406577237408
18.2771,-0.039122513667402
18.2772,-0.0681082737010407
18.2773,-0.0784143218523134
18.2774,-0.107400082684614
18.2775,-0.101602930469263
18.2776,-0.13123281983399
18.2777,-0.103213250526598
18.2778,-0.111908978869312
18.2779,-0.0838894099631499
18.278,-0.0951616502589091
18.2781,-0.0819570259215984
18.2782,-0.0771260658293223
18.2783,-0.0832452819490037
18.2784,-0.0706847857318859
18.2785,-0.0864659220226982
18.2786,-0.103213250526598
18.2787,-0.0896865621038254
18.2788,-0.0742274897818709
18.2789,-0.0722951057535168
18.279,-0.102247058491968
18.2791,-0.0771260658293223
18.2792,-0.0961278422885326
18.2793,-0.0607008016380016
18.2794,-0.0555477776163993
18.2795,-0.0307488497624264
18.2796,-0.00594992230939573
18.2797,0.0294771162487726
18.2798,0.038816971744851
18.2799,0.0330198200635563
18.28,0.0159504288883146
18.2801,0.00435612534954538
18.2802,0.00789882921724792
18.2803,0.00757676522959061
18.2804,-0.00466166634843425
18.2805,-0.0713289137403207
18.2806,-0.118994387190237
18.2807,-0.125757731531894
18.2808,-0.106433890647
18.2809,-0.0919410101650576
18.281,-0.105467698610075
18.2811,-0.100636738435775
18.2812,-0.0713289137403207
18.2813,-0.0539374576133629
18.2814,-0.0523271376120868
18.2815,-0.0632773136556306
18.2816,-0.0697185937197768
18.2817,-0.0735833617721286
18.2818,-0.0816349619149316
18.2819,-0.0693965297158851
18.282,-0.0278502738060048
18.2821,-0.045563793625841
18.2822,-0.0288164657908718
18.2823,0.00467818933783458
18.2824,-0.00466166634843425
18.2825,-0.00176309044003954
18.2826,0.0207813886723139
18.2827,0.0233579005514542
18.2828,-0.00176309044003954
18.2829,0.0162724928743471
18.283,-0.035579809701982
18.2831,-0.0449196656287529
18.2832,-0.0336474257243255
18.2833,-0.0220531219094813
18.2834,-0.0590904816292995
18.2835,-0.0755157458022302
18.2836,-0.0768040018237576
18.2837,-0.0342915537166054
18.2838,-0.059734609632567
18.2839,-0.0999926104138309
18.284,-0.109976594788305
18.2841,-0.124469475464139
18.2842,-0.111586914855617
18.2843,-0.128334243671199
18.2844,-0.120604707268441
18.2845,-0.123503283414152
18.2846,-0.0838894099631499
18.2847,-0.0761598738128477
18.2848,-0.0945175222395371
18.2849,-0.100636738435775
18.285,-0.0816349619149316
18.2851,-0.0987043543708529
18.2852,-0.0668200176873501
18.2853,-0.0848556019849243
18.2854,-0.0835673459560398
18.2855,-0.0819570259215984
18.2856,-0.0999926104138309
18.2857,-0.101602930469263
18.2858,-0.106111826634615
18.2859,-0.124147411447398
18.286,-0.138962356299742
18.2861,-0.135741716100065
18.2862,-0.126401859566245
18.2863,-0.126401859566245
18.2864,-0.136063780119671
18.2865,-0.121892963332415
18.2866,-0.0935513302110436
18.2867,-0.0854997299998112
18.2868,-0.0806687698953736
18.2869,-0.0951616502589091
18.287,-0.116095811054396
18.2871,-0.10933246676192
18.2872,-0.129944563760843
18.2873,-0.145403636723328
18.2874,-0.131876947871042
18.2875,-0.155387621444359
18.2876,-0.137352036198898
18.2877,-0.165371606244784
18.2878,-0.200154521669967
18.2879,-0.181474807706022
18.288,-0.17664384724536
18.2881,-0.163117158057044
18.2882,-0.145403636723328
18.2883,-0.142182996507484
18.2884,-0.119960579236924
18.2885,-0.10933246676192
18.2886,-0.0716509777446469
18.2887,-0.124791539480959
18.2888,-0.135097588061094
18.2889,-0.167303990408973
18.289,-0.151200789132391
18.2891,-0.116417875069177
18.2892,-0.162473030004156
18.2893,-0.172457014861627
18.2894,-0.119960579236924
18.2895,-0.160218581821676
18.2896,-0.143149188571385
18.2897,-0.139606484340644
18.2898,-0.108044210710075
18.2899,-0.119960579236924
18.29,-0.133809331984113
18.2901,-0.143149188571385
18.2902,-0.154099365346886
18.2903,-0.182440999800466
18.2904,-0.17599971918539
18.2905,-0.190814664651462
18.2906,-0.185339576088438
18.2907,-0.178898295457943
18.2908,-0.157964133643273
18.2909,-0.144115380636016
18.291,-0.167303990408973
18.2911,-0.159252389744719
18.2912,-0.173423206948907
18.2913,-0.156353813518331
18.2914,-0.17664384724536
18.2915,-0.174389399036951
18.2916,-0.153455237298644
18.2917,-0.133165203946103
18.2918,-0.148302212924548
18.2919,-0.119316451205721
18.292,-0.141860932486346
18.2921,-0.10514563459792
18.2922,-0.104179442561915
18.2923,-0.0874321140462542
18.2924,-0.106755954659461
18.2925,-0.104823570585842
18.2926,-0.123181219397647
18.2927,-0.0758378098075024
18.2928,-0.062955249653177
18.2929,-0.0780922578464557
18.293,-0.0768040018237576
18.2931,-0.0854997299998112
18.2932,-0.0845335379775921
18.2933,-0.0755157458022302
18.2934,-0.0671420816906647
18.2935,-0.0500726896132485
18.2936,-0.0700406577237408
18.2937,-0.0797025778764782
18.2938,-0.0497506256136946
18.2939,-0.02946059378112
18.294,-0.0890424340870035
18.2941,-0.0558698416172182
18.2942,-0.0655317616748109
18.2943,-0.0584463536263162
18.2944,-0.0912968821471883
18.2945,-0.0977381623394153
18.2946,-0.0584463536263162
18.2947,0.00242374141847748
18.2948,0.0127297890245723
18.2949,0.029155052265249
18.295,0.0436479314645879
18.2951,0.0236799645360713
18.2952,0.0829397367063208
18.2953,0.0848721205493771
18.2954,0.0819735447840648
18.2955,0.0955002316518453
18.2956,0.0874486323371122
18.2957,0.101619447109091
18.2958,0.0771425851654656
18.2959,0.07746464914042
18.296,0.0858383124701795
18.2961,0.0948561037078807
18.2962,0.111603430183598
18.2963,0.118688837497287
18.2964,0.123197733048006
18.2965,0.133503779985109
18.2966,0.101941511080006
18.2967,0.0951781676798892
18.2968,0.0819735447840648
18.2969,0.067480665891251
18.297,0.07746464914042
18.2971,0.0571746186100354
18.2972,0.0678027298678616
18.2973,0.067480665891251
18.2974,0.0835838646542216
18.2975,0.074888137339253
18.2976,0.108060726517613
18.2977,0.109026918427127
18.2978,0.0996870632825163
18.2979,0.0951781676798892
18.298,0.0948561037078807
18.2981,0.0768205211904566
18.2982,0.0700571777025761
18.2983,0.100331191224915
18.2984,0.0961443595956001
18.2985,0.0942119757637061
18.2986,0.0697351137263551
18.2987,0.0871265683638326
18.2988,0.0726336895103494
18.2989,0.0636158981675602
18.299,0.0600731944137269
18.2991,0.0343080759944037
18.2992,0.0275447323467236
18.2993,0.0204593246871454
18.2994,-0.0114250101550504
18.2995,0.0050002533260604
18.2996,-0.0188324819763036
18.2997,-0.0275282098111837
18.2998,-0.0185104179833505
18.2999,-0.0197986739555601
18.3,-0.008932175667125
18.3001,-0.0504784310546531
18.3002,-0.0817186393567123
18.3003,-0.10651756808878
18.3004,-0.0991100958232642
18.3005,-0.0888040475204852
18.3006,-0.0736670392139092
18.3007,-0.0817186393567123
18.3008,-0.101364543899805
18.3009,-0.077209743271103
18.301,-0.0765656152600468
18.3011,-0.0572417750629815
18.3012,-0.0791421273060296
18.3013,-0.0388841271119839
18.3014,-0.0817186393567123
18.3015,-0.0833289593907844
18.3016,-0.0640051191025331
18.3017,-0.0524108150538675
18.3018,-0.0565976470608487
18.3019,-0.0813965753501192
18.302,-0.0743111672236516
18.3021,-0.0614286070837613
18.3022,-0.0833289593907844
18.3023,-0.107483760126395
18.3024,-0.0939570716622469
18.3025,-0.0688360791500991
18.3026,-0.103618991980075
18.3027,-0.050800495054347
18.3028,-0.0936350076528243
18.3029,-0.0884819835122608
18.303,-0.0450033430705336
18.3031,-0.0488681110572327
18.3032,-0.0466136630637745
18.3033,-0.0433930230790259
18.3034,-0.0578859030653974
18.3035,-0.0466136630637745
18.3036,-0.0817186393567123
18.3037,-0.0462915990649874
18.3038,-0.064971311110753
18.3039,-0.0327649111781961
18.304,-0.0421047670870644
18.3041,-0.0527328790539821
18.3042,-0.0727008471998414
18.3043,-0.103941055991847
18.3044,-0.0804303833307822
18.3045,-0.0804303833307822
18.3046,-0.0946011996813177
18.3047,-0.0669036951291307
18.3048,-0.0562755830598885
18.3049,-0.0398503191037861
18.305,-0.0520887510538231
18.3051,-0.0752773592388116
18.3052,-0.0659375031196186
18.3053,-0.0221367993512619
18.3054,-0.0414606390914977
18.3055,-0.0588520950695531
18.3056,-0.0379179351207991
18.3057,-0.0614286070837613
18.3058,-0.0295442712229007
18.3059,-0.0366296791335111
18.306,-0.0485460470579582
18.3061,-0.0817186393567123
18.3062,-0.088159919504111
18.3063,-0.100398351866546
18.3064,-0.1152132964523
18.3065,-0.140656353844383
18.3066,-0.117789808570863
18.3067,-0.0952453277006898
18.3068,-0.127451729060146
18.3069,-0.102974863956759
18.307,-0.0830068953838222
18.3071,-0.110060272230085
18.3072,-0.116823616525817
18.3073,-0.122298704790386
18.3074,-0.105229312039701
18.3075,-0.0952453277006898
18.3076,-0.0962115197303133
18.3077,-0.073022911204458
18.3078,-0.097821839781196
18.3079,-0.097821839781196
18.308,-0.088159919504111
18.3081,-0.122298704790386
18.3082,-0.102008671922358
18.3083,-0.0865495994644789
18.3084,-0.0617506710858578
18.3085,-0.0482239830587534
18.3086,-0.0498343030554752
18.3087,-0.0630389270949576
18.3088,-0.0733449752091472
18.3089,-0.0646492471079413
18.309,-0.105551376051856
18.3091,-0.102330735933749
18.3092,-0.0891261115287842
18.3093,-0.0691581431538463
18.3094,-0.0482239830587534
18.3095,-0.0446812790720935
18.3096,0.0103916636744619
18.3097,-0.00442327980013586
18.3098,-0.0160175834838847
18.3099,-0.0266456952689045
18.31,-0.0156955194915256
18.3101,-0.00249089586101352
18.3102,-0.0147293275148429
18.3103,-0.034697295154628
18.3104,-0.0182720314322442
18.3105,-0.00281295985070647
18.3106,0.0152226234742827
18.3107,0.0371229743935351
18.3108,-0.0147293275148429
18.3109,-0.0369517431302305
18.311,0.0168329434044457
18.3111,0.0139343675290351
18.3112,0.0210197752156404
18.3113,0.00717102380008963
18.3114,-0.0169837754613572
18.3115,-0.0372738071270183
18.3116,-0.0224588633449452
18.3117,0.00169593599916553
18.3118,-0.0243912473084454
18.3119,-0.0240691833143618
18.312,-0.0105424956227026
18.3121,-0.0163396474763096
18.3122,-0.0137631355387514
18.3123,-0.073989103218744
18.3124,-0.0701243351655214
18.3125,-0.0569197110618797
18.3126,-0.0736670392139092
18.3127,-0.0562755830598885
18.3128,-0.0833289593907844
18.3129,-0.0904143675627268
18.313,-0.0842951514121146
18.3131,-0.0588520950695531
18.3132,-0.0520887510538231
18.3133,-0.0900923035541291
18.3134,-0.078497999294094
18.3135,-0.113280912366645
18.3136,-0.130672369239038
18.3137,-0.158691939135611
18.3138,-0.151284466574172
18.3139,-0.150962402550751
18.314,-0.161590515367231
18.3141,-0.126485537008026
18.3142,-0.108127888151856
18.3143,-0.0894481755371578
18.3144,-0.140978417865198
18.3145,-0.101364543899805
18.3146,-0.0884819835122608
18.3147,-0.0617506710858578
18.3148,-0.0755994232440108
18.3149,-0.0865495994644789
18.315,-0.0617506710858578
18.3151,-0.0652933751136364
18.3152,-0.0443592150737228
18.3153,-0.0549873270567538
18.3154,-0.0173058394539799
18.3155,0.0174770713760774
18.3156,0.0197315192748432
18.3157,-0.0179499674394234
18.3158,-0.0266456952689045
18.3159,0.00330625594251659
18.316,-0.0379179351207991
18.3161,-0.0247133113025958
18.3162,-0.0398503191037861
18.3163,-0.0173058394539799
18.3164,-0.0134410715468521
18.3165,-0.0144072635227467
18.3166,-0.0462915990649874
18.3167,-0.0353414231473163
18.3168,-0.0462915990649874
18.3169,-0.0949232636909661
18.317,-0.108127888151856
18.3171,-0.122620768806655
18.3172,-0.0933129436434769
18.3173,-0.0698022711615575
18.3174,-0.0646492471079413
18.3175,-0.0662595671227174
18.3176,-0.103296927968379
18.3177,-0.0974997757708682
18.3178,-0.0936350076528243
18.3179,-0.0981439037915994
18.318,-0.074633231228632
18.3181,-0.0578859030653974
18.3182,-0.0398503191037861
18.3183,-0.0453254070690429
18.3184,-0.0549873270567538
18.3185,-0.0514446230539448
18.3186,-0.0617506710858578
18.3187,-0.0453254070690429
18.3188,-0.0408165110962066
18.3189,-0.0604624150778995
18.319,-0.046935727062631
18.3191,-0.0289001432326525
18.3192,-0.0472577910615572
18.3193,-0.0846172154193728
18.3194,-0.073989103218744
18.3195,-0.0723787831952975
18.3196,-0.0946011996813177
18.3197,-0.0971777117606161
18.3198,-0.0833289593907844
18.3199,-0.0839730874049305
18.32,-0.0855834074415919
18.3201,-0.0929908796342046
18.3202,-0.0962115197303133
18.3203,-0.104907248027623
18.3204,-0.0965335837403387
18.3205,-0.0981439037915994
18.3206,-0.0859054714491466
18.3207,-0.103941055991847
18.3208,-0.0871937274801085
18.3209,-0.110382336243393
18.321,-0.104585184015621
18.3211,-0.0614286070837613
18.3212,-0.0472577910615572
18.3213,-0.0611065430817361
18.3214,-0.034697295154628
18.3215,-0.0472577910615572
18.3216,-0.0224588633449452
18.3217,-0.0353414231473163
18.3218,-0.0604624150778995
18.3219,-0.0514446230539448
18.322,-0.0443592150737228
18.3221,-0.0263236312743521
18.3222,-0.0755994232440108
18.3223,-0.0958894557203633
18.3224,-0.0704463991695578
18.3225,-0.0991100958232642
18.3226,-0.0946011996813177
18.3227,-0.0691581431538463
18.3228,-0.0421047670870644
18.3229,-0.0910584955801468
18.323,-0.122942832823002
18.3231,-0.0797862553182589
18.3232,-0.0520887510538231
18.3233,-0.0375958711238744
18.3234,-0.0327649111781961
18.3235,-0.0353414231473163
18.3236,-0.0504784310546531
18.3237,-0.0340531671622121
18.3238,-0.0511225590541108
18.3239,-0.0305104632087791
18.324,-0.0520887510538231
18.3241,-0.064971311110753
18.3242,-0.057563839064154
18.3243,-0.073022911204458
18.3244,-0.0836510233978205
18.3245,-0.0987880318126335
18.3246,-0.0884819835122608
18.3247,-0.0900923035541291
18.3248,-0.0830068953838222
18.3249,-0.0920246876068382
18.325,-0.102008671922358
18.3251,-0.101042479888642
18.3252,-0.139046033741523
18.3253,-0.147097634276082
18.3254,-0.118433936601284
18.3255,-0.117789808570863
18.3256,-0.132604753350193
18.3257,-0.150318274504153
18.3258,-0.129706177184536
18.3259,-0.132282689331468
18.326,-0.109738208216854
18.3261,-0.0955673917104888
18.3262,-0.100076287855612
18.3263,-0.0968556477504396
18.3264,-0.0727008471998414
18.3265,-0.077209743271103
18.3266,-0.0717346551864275
18.3267,-0.0543431990556098
18.3268,-0.0317987191908968
18.3269,-0.008932175667125
18.327,-0.00249089586101352
18.3271,-0.00313502384046369
18.3272,0.00556070386054146
18.3273,0.00395038391941214
18.3274,0.00878134373806149
18.3275,-0.00699979172257609
18.3276,0.00588276784857742
18.3277,-0.0263236312743521
18.3278,-0.0102204316314569
18.3279,-0.050800495054347
18.328,-0.046935727062631
18.3281,-0.0404944470986643
18.3282,-0.0417827030892466
18.3283,-0.0231029913325118
18.3284,-0.0652933751136364
18.3285,-0.0582079670667117
18.3286,-0.0630389270949576
18.3287,-0.0694802071576658
18.3288,-0.0511225590541108
18.3289,-0.0971777117606161
18.329,-0.108772016177624
18.3291,-0.0691581431538463
18.3292,-0.0459695350662698
18.3293,-0.00925423965811039
18.3294,-0.0517666870538489
18.3295,-0.0311545911997026
18.3296,-0.008932175667125
18.3297,-0.00925423965811039
18.3298,-0.0185940954251312
18.3299,0.00749308778780994
18.33,0.0174770713760774
18.3301,0.034224398552623
18.3302,0.0477510857692292
18.3303,0.0355126544825136
18.3304,0.00942547171280995
18.3305,0.00395038391941214
18.3306,0.0281051828725347
18.3307,0.045818701887492
18.3308,0.0477510857692292
18.3309,0.0583791970815753
18.331,0.0374450383755609
18.3311,0.0142564315154403
18.3312,0.013290239556038
18.3313,0.0155446874604393
18.3314,-0.0140851995307162
18.3315,-0.0301883992134188
18.3316,-0.0382399991177922
18.3317,-0.0408165110962066
18.3318,-0.0311545911997026
18.3319,-0.00313502384046369
18.332,-0.0111866236053897
18.3321,-0.0388841271119839
18.3322,-0.0585300310680969
18.3323,-0.0669036951291307
18.3324,-0.0334090391700682
18.3325,0.0120019836092957
18.3326,0.0110357916485831
18.3327,-0.0131190075550183
18.3328,-0.0411385750938177
18.3329,-0.01279694356325
18.333,-0.0144072635227467
18.3331,0.0103916636744619
18.3332,-0.0227809273386952
18.3333,-0.0243912473084454
18.3334,-0.0243912473084454
18.3335,-0.0131190075550183
18.3336,-0.0086101116762046
18.3337,-0.0569197110618797
18.3338,-0.042748895082907
18.3339,-0.0656154391165916
18.334,-0.0907364315713994
18.3341,-0.0669036951291307
18.3342,-0.0675478231358319
18.3343,-0.0736670392139092
18.3344,-0.0665816311258881
18.3345,-0.0372738071270183
18.3346,-0.0582079670667117
18.3347,-0.0305104632087791
18.3348,-0.0124748795715472
18.3349,-0.019560287404189
18.335,0.0139343675290351
18.3351,0.0348685265176877
18.3352,0.0277831188887691
18.3353,0.0326140786389141
18.3354,0.0377671023575273
18.3355,0.0232742231096735
18.3356,0.0258507349849024
18.3357,0.0261727989690319
18.3358,0.0558026852540215
18.3359,0.0757706518233207
18.336,0.0561247492326655
18.3361,0.0899414666796487
18.3362,0.0760927157984939
18.3363,0.0490393416892234
18.3364,0.0970268740690591
18.3365,0.112485944649659
18.3366,0.0912297225705318
18.3367,0.110875624803003
18.3368,0.120859607832075
18.3369,0.0996033858407356
18.337,0.10379021746263
18.3371,0.11055356083352
18.3372,0.0896194027067953
18.3373,0.0841443151601262
18.3374,0.0825339952905088
18.3375,0.0835001872124409
18.3376,0.0863987629753324
18.3377,0.0487172777093119
18.3378,0.0480731497493149
18.3379,0.0554806212753202
18.338,0.0400215502296318
18.3381,0.0429201260609413
18.3382,0.0268169269371088
18.3383,0.0281051828725347
18.3384,0.0155446874604393
18.3385,0.00813721576306159
18.3386,0.00459451189605391
18.3387,-0.0169837754613572
18.3388,-0.0108645596140135
18.3389,-0.008932175667125
18.339,-0.0231029913325118
18.3391,-0.0250353752968132
18.3392,-0.0627168630925755
18.3393,-0.073989103218744
18.3394,-0.0936350076528243
18.3395,-0.0781759352882364
18.3396,-0.0971777117606161
18.3397,-0.0994321598339708
18.3398,-0.151928594621262
18.3399,-0.18413499740137
18.34,-0.200238199111748
18.3401,-0.213120760638222
18.3402,-0.188965957891671
18.3403,-0.170930372159632
18.3404,-0.196373430681375
18.3405,-0.206035351781089
18.3406,-0.212476632558516
18.3407,-0.173506884390688
18.3408,-0.107483760126395
18.3409,-0.139368097761934
18.341,-0.100076287855612
18.3411,-0.0691581431538463
18.3412,-0.0698022711615575
18.3413,-0.091380559588969
18.3414,-0.0665816311258881
18.3415,-0.0433930230790259
18.3416,-0.0359855511402772
18.3417,-0.00120263990288343
18.3418,0.0310037587237053
18.3419,0.00330625594251659
18.342,-0.00442327980013586
18.3421,-0.0137631355387514
18.3422,-0.00925423965811039
18.3423,-0.00667772773204483
18.3424,-0.00442327980013586
18.3425,-0.0321207831865954
18.3426,0.014900559488064
18.3427,0.0161888154325665
18.3428,-0.000880575913511171
18.3429,-0.0221367993512619
18.343,-0.0095763036491608
18.3431,-0.021492671364095
18.3432,-0.0453254070690429
18.3433,-0.0327649111781961
18.3434,-0.0292222072277429
18.3435,-0.0295442712229007
18.3436,-0.046935727062631
18.3437,-0.03630761513686
18.3438,-0.0185940954251312
18.3439,-0.00571153576083915
18.344,-0.0111866236053897
18.3441,-0.00120263990288343
18.3442,0.0213418392006861
18.3443,0.00910340772546713
18.3444,-0.0131190075550183
18.3445,-0.0430709590809319
18.3446,-0.0517666870538489
18.3447,-0.0549873270567538
18.3448,-0.0710905271778478
18.3449,-0.120044256678705
18.345,-0.19444104647092
18.3451,-0.246293357234392
18.3452,-0.250480189884146
18.3453,-0.254344958498024
18.3454,-0.2565994068624
18.3455,-0.254667022549794
18.3456,-0.236953499841783
18.3457,-0.18928802192505
18.3458,-0.235021115563392
18.3459,-0.230190154881916
18.346,-0.214086952758453
18.3461,-0.217307593165057
18.3462,-0.207001543895434
18.3463,-0.231478411061622
18.3464,-0.25724353496736
18.3465,-0.2565994068624
18.3466,-0.261430367658862
18.3467,-0.242428588648653
18.3468,-0.215375208920017
18.3469,-0.177693716777736
18.347,-0.181880549179198
18.3471,-0.200560263148184
18.3472,-0.254022894446349
18.3473,-0.277855634528113
18.3474,-0.360304036859706
18.3475,-0.409901907231839
18.3476,-0.525844991550633
18.3477,-0.581562090600097
18.3478,-0.612158187145236
18.3479,-0.665620843055388
18.348,-0.661434008415506
18.3481,-0.598953555854374
18.3482,-0.549355674488799
18.3483,-0.506199078930904
18.3484,-0.404748881616055
18.3485,-0.312638553446249
18.3486,-0.22439300209134
18.3487,-0.0884819835122608
18.3488,-0.00699979172257609
18.3489,0.106044665255429
18.349,0.142759957537706
18.3491,0.208461005406525
18.3492,0.30314780692995
18.3493,0.408140652145567
18.3494,0.531169076228419
18.3495,0.560798958386212
18.3496,0.635839855793393
18.3497,0.714745521194301
18.3498,0.780446566024603
18.3499,0.804601362214212
18.35,0.832298862073534
18.3501,0.831332670213612
18.3502,0.821670751632081
18.3503,0.805567554065534
18.3504,0.771428775491239
18.3505,0.760800665248781
18.3506,0.719254416394662
18.3507,0.68801421402025
18.3508,0.658706395459764
18.3509,0.636806047608902
18.351,0.549204656670385
18.3511,0.454839923204737
18.3512,0.436482278749025
18.3513,0.382053473012036
18.3514,0.3498470788553
18.3515,0.307978766119388
18.3516,0.265466325030204
18.3517,0.216834668247198
18.3518,0.196866702968258
18.3519,0.169813330406406
18.352,0.108943240985346
18.3521,0.0400215502296318
18.3522,-0.0327649111781961
18.3523,-0.107483760126395
18.3524,-0.19411898243615
18.3525,-0.300078054813987
18.3526,-0.352896562934985
18.3527,-0.429869881768213
18.3528,-0.57093397313727
18.3529,-0.698793456838491
18.353,-0.847587142463381
18.3531,-1.00121182909857
18.3532,-1.07721902683342
18.3533,-1.21635087470055
18.3534,-1.31168197810888
18.3535,-1.36514469994383
18.3536,-1.45693312267385
18.3537,-1.49429262656016
18.3538,-1.4936484971552
18.3539,-1.42279426848995
18.354,-1.39606290338072
18.3541,-1.32359836738011
18.3542,-1.27754313484319
18.3543,-1.20250210109937
18.3544,-1.15451449321257
18.3545,-1.04533465022957
18.3546,-0.97802319456911
18.3547,-0.864978614449306
18.3548,-0.707811255029722
18.3549,-0.628905524725133
18.355,-0.512318297565527
18.3551,-0.373508664431758
18.3552,-0.245005101037652
18.3553,-0.132604753350193
18.3554,0.0145784955017832
18.3555,0.120859607832075
18.3556,0.193001935477338
18.3557,0.278993010887505
18.3558,0.254194086772814
18.3559,0.319573068149626
18.356,0.352101526452927
18.3561,0.327624666762205
18.3562,0.297672719841113
18.3563,0.297028591947778
18.3564,0.309589085847851
18.3565,0.325692283096605
18.3566,0.304436062714398
18.3567,0.309911149793464
18.3568,0.302503679037561
18.3569,0.310233213739049
18.357,0.335354201415865
18.3571,0.345016119713908
18.3572,0.383985856655344
18.3573,0.42327765727592
18.3574,0.420057017889024
18.3575,0.390749199401953
18.3576,0.319895132094431
18.3577,0.207172749582569
18.3578,0.0268169269371088
18.3579,-0.187677701759023
18.358,-0.433734651084369
18.3581,-0.698793456838491
18.3582,-0.921983998313923
18.3583,-1.13712301227788
18.3584,-1.29429049160856
18.3585,-1.44211814788933
18.3586,-1.54936569432031
18.3587,-1.64147622176506
18.3588,-1.64276448103965
18.3589,-1.58447075301565
18.359,-1.48752926785668
18.3591,-1.39187606320765
18.3592,-1.22053771330752
18.3593,-1.09911940781934
18.3594,-0.886878987277208
18.3595,-0.73583084301625
18.3596,-0.551932187729349
18.3597,-0.375441048969781
18.3598,-0.204425031592288
18.3599,-0.0205264793838433
18.36,0.110231496863987
18.3601,0.228106906646305
18.3602,0.344049927885028
18.3603,0.495742043210882
18.3604,0.55725625508375
18.3605,0.651298924855827
18.3606,0.698964388026395
18.3607,0.739222380908129
18.3608,0.772717031280314
18.3609,0.829078222541721
18.361,0.827145838824355
18.3611,0.840994588827624
18.3612,0.828434094635789
18.3613,0.876421624040463
18.3614,0.889626246381904
18.3615,0.900898485023285
18.3616,0.873845112372304
18.3617,0.821026623727774
18.3618,0.822314879536526
18.3619,0.791074676326297
18.362,0.719254416394662
18.3621,0.620380786759927
18.3622,0.516676199087835
18.3623,0.525049861435937
18.3624,0.459992946204167
18.3625,0.456128178954809
18.3626,0.42327765727592
18.3627,0.436804342687142
18.3628,0.448720708389842
18.3629,0.469332800385145
18.363,0.491555212033661
18.3631,0.545984017305449
18.3632,0.558866574766637
18.3633,0.572715324043396
18.3634,0.570460876486168
18.3635,0.543085441877159
18.3636,0.468366608573626
18.3637,0.422311465459989
18.3638,0.357576613471365
18.3639,0.32698053887377
18.364,0.277704755093924
18.3641,0.218444988021298
18.3642,0.135674550304242
18.3643,0.077058907723685
18.3644,-0.029866335218126
18.3645,-0.110060272230085
18.3646,-0.223426809962447
18.3647,-0.33711542302153
18.3648,-0.374152792610663
18.3649,-0.488807615688133
18.365,-0.569001588159583
18.3651,-0.667553228281997
18.3652,-0.752578183511474
18.3653,-0.804430528870951
18.3654,-0.933256250002393
18.3655,-0.98382035311267
18.3656,-1.04630084343249
18.3657,-1.09300018362956
18.3658,-1.13873333456197
18.3659,-1.13551268999881
18.366,-1.13390236772475
18.3661,-1.09010160377482
18.3662,-1.01892537000722
18.3663,-0.935832764704287
18.3664,-0.853062235443531
18.3665,-0.761273918163751
18.3666,-0.692996300919729
18.3667,-0.607005160272658
18.3668,-0.476569178806237
18.3669,-0.413122548256413
18.367,-0.340013999721389
18.3671,-0.299755990748504
18.3672,-0.292992645396378
18.3673,-0.303620759540919
18.3674,-0.280754211060586
18.3675,-0.295891221970485
18.3676,-0.345167024986564
18.3677,-0.483332525482349
18.3678,-0.663044329427971
18.3679,-0.852740171149251
18.368,-1.01248408233915
18.3681,-1.1696515233961
18.3682,-1.29622287896575
18.3683,-1.42762523826013
18.3684,-1.53712723419238
18.3685,-1.65339262021488
18.3686,-1.78093031303935
18.3687,-1.8669216607034
18.3688,-1.92328304200679
18.3689,-1.88141458647212
18.369,-1.7970335601344
18.3691,-1.65790152783015
18.3692,-1.50170011478727
18.3693,-1.35194005120203
18.3694,-1.17190597473861
18.3695,-0.977057001484242
18.3696,-0.764494560656282
18.3697,-0.530031825448496
18.3698,-0.334538910406538
18.3699,-0.157403683034828
18.37,0.00878134373806149
18.3701,0.139861381854047
18.3702,0.294130016426373
18.3703,0.415226058806157
18.3704,0.495097915337512
18.3705,0.609430612876408
18.3706,0.732781102022758
18.3707,0.868692089043878
18.3708,0.921832642645882
18.3709,0.990110204326953
18.371,1.07127032807259
18.3711,1.13439487158358
18.3712,1.19397671367372
18.3713,1.29703720387085
18.3714,1.33826140251963
18.3715,1.40718311322839
18.3716,1.47320625183857
18.3717,1.50637885496537
18.3718,1.61523653244657
18.3719,1.70638069392204
18.372,1.81072950051721
18.3721,1.89221175880918
18.3722,2.00010330281493
18.3723,2.09350196880929
18.3724,2.18883303730141
18.3725,2.24938115737869
18.3726,2.30187767164653
18.3727,2.3485770295804
18.3728,2.34825496502732
18.3729,2.34922115868721
18.373,2.32635457592869
18.3731,2.27063741401857
18.3732,2.20203767989998
18.3733,2.05324392123939
18.3734,1.87256583789082
18.3735,1.67642872445736
18.3736,1.3868930764141
18.3737,1.15951586414792
18.3738,0.865471449468898
18.3739,0.569172620739286
18.374,0.252583767018464
18.3741,-0.0620727350880256
18.3742,-0.3271314366755
18.3743,-0.643720477514069
18.3744,-0.89106582334846
18.3745,-1.1870430054418
18.3746,-1.38994367544866
18.3747,-1.5880134655282
18.3748,-1.77899792343477
18.3749,-1.93197879877931
18.375,-2.04985463443282
18.3751,-2.15098311667739
18.3752,-2.27723273165664
18.3753,-2.34647680258521
18.3754,-2.4112119717329
18.3755,-2.40734718511685
18.3756,-2.46048800557857
18.3757,-2.46886171151019
18.3758,-2.49881381549823
18.3759,-2.52135841197565
18.376,-2.53617343349687
18.3761,-2.54100441894416
18.3762,-2.52908798832432
18.3763,-2.52168047765262
18.3764,-2.4727264989455
18.3765,-2.39704108772272
18.3766,-2.30750688165344
18.3767,-2.18383377693296
18.3768,-2.02956452866374
18.3769,-1.84502124064905
18.377,-1.68012400183297
18.3771,-1.48978372074592
18.3772,-1.27464455392446
18.3773,-1.04179194183347
18.3774,-0.782530158903622
18.3775,-0.516183067252834
18.3776,-0.256921470914833
18.3777,-0.042748895082907
18.3778,0.238735017095939
18.3779,0.451297219891272
18.378,0.64067081487209
18.3781,0.863217001768805
18.3782,1.05259061670887
18.3783,1.19751941788151
18.3784,1.35275428523076
18.3785,1.52377031729337
18.3786,1.71443229882405
18.3787,1.80396615146612
18.3788,1.83134161233114
18.3789,1.80944124354988
18.379,1.74245188458032
18.3791,1.66161377226125
18.3792,1.51282013726887
18.3793,1.3765870261258
18.3794,1.23713329287731
18.3795,1.13246248755868
18.3796,1.09091623163929
18.3797,1.12151231146654
18.3798,1.15661728805969
18.3799,1.22747137203094
18.38,1.33568489005833
18.3801,1.45420447000915
18.3802,1.59816713236828
18.3803,1.74985936145776
18.3804,1.880939509028
18.3805,2.05485424308676
18.3806,2.20364800219116
18.3807,2.32184567241508
18.3808,2.45743486129451
18.3809,2.5814297611115
18.381,2.69672894746043
18.3811,2.79624698703709
18.3812,2.83489477634719
18.3813,2.84842150354502
18.3814,2.8139605566465
18.3815,2.78755123498539
18.3816,2.70574676230252
18.3817,2.57949737278774
18.3818,2.50123565303694
18.3819,2.34149160946309
18.382,2.20332593773252
18.3821,2.03166560892431
18.3822,1.74470633405658
18.3823,1.43455856038836
18.3824,1.09381480759635
18.3825,0.756613833949477
18.3826,0.330201178314966
18.3827,0.00137387201030433
18.3828,-0.334216846330133
18.3829,-0.631804102421351
18.383,-0.903304267415157
18.3831,-1.17512661953103
18.3832,-1.39090986932711
18.3833,-1.59638714977148
18.3834,-1.72006004526168
18.3835,-1.86595546567297
18.3836,-1.97255899991966
18.3837,-2.03568376678234
18.3838,-2.10202919780693
18.3839,-2.10331745873547
18.384,-2.08045082800533
18.3841,-2.04566778711004
18.3842,-2.02441148612381
18.3843,-1.96160878644568
18.3844,-1.86466720563642
18.3845,-1.84824189057385
18.3846,-1.757419573528
18.3847,-1.67207238067181
18.3848,-1.56160415480967
18.3849,-1.41860742806524
18.385,-1.32263217364406
18.3851,-1.2353526809726
18.3852,-1.09332224805884
18.3853,-0.977057001484242
18.3854,-0.854350492622319
18.3855,-0.708777447699985
18.3856,-0.579951769763059
18.3857,-0.48236633309676
18.3858,-0.416343189292348
18.3859,-0.33711542302153
18.386,-0.249836061783152
18.3861,-0.190576278059431
18.3862,-0.167387667850754
18.3863,-0.158691939135611
18.3864,-0.178981972899724
18.3865,-0.178015780808105
18.3866,-0.167387667850754
18.3867,-0.14484318612129
18.3868,-0.129384113166528
18.3869,-0.127129665042693
18.387,-0.141944609928126
18.3871,-0.197339622787784
18.3872,-0.235987307702172
18.3873,-0.36127022911493
18.3874,-0.421818279079621
18.3875,-0.479789820073886
18.3876,-0.555796957605819
18.3877,-0.585426860622652
18.3878,-0.573188422283938
18.3879,-0.508453527896299
18.388,-0.394764894567364
18.3881,-0.285907236026762
18.3882,-0.167709731878413
18.3883,-0.034375231158386
18.3884,0.193968127350615
18.3885,0.443245621447166
18.3886,0.745663659803504
18.3887,1.01394293868645
18.3888,1.32988773704302
18.3889,1.68898922763441
18.389,2.02619051488414
18.3891,2.30574244592464
18.3892,2.55888523121788
18.3893,2.7965690519317
18.3894,2.99528314537706
18.3895,3.16533354473765
18.3896,3.26839443546162
18.3897,3.34440186390109
18.3898,3.35084317225511
18.3899,3.33216337840109
18.39,3.30897467036517
18.3901,3.2355437729433
18.3902,3.18465745923863
18.3903,3.07290083600634
18.3904,2.93634524244403
18.3905,2.7836864563593
18.3906,2.51089759297853
18.3907,2.24358399663362
18.3908,1.96532035518903
18.3909,1.70670275811642
18.391,1.44261016264257
18.3911,1.23391265258675
18.3912,1.02650343394879
18.3913,0.89638958956029
18.3914,0.758546217625504
18.3915,0.654841628187163
18.3916,0.539864802512526
18.3917,0.452263411704148
18.3918,0.373035682667916
18.3919,0.294774144320217
18.392,0.158219027787304
18.3921,0.112485944649659
18.3922,0.0242404150633416
18.3923,-0.0546652630561466
18.3924,-0.0594962230726784
18.3925,-0.0884819835122608
18.3926,-0.149352082434873
18.3927,-0.196373430681375
18.3928,-0.28558517196564
18.3929,-0.380594074423729
18.393,-0.511030041007112
18.3931,-0.677537218702372
18.3932,-0.911033811164492
18.3933,-1.15612481555115
18.3934,-1.39413051560367
18.3935,-1.63600111989469
18.3936,-1.89880609817069
18.3937,-2.09590995846552
18.3938,-2.33423831447717
18.3939,-2.49720348724692
18.394,-2.60863822399716
18.3941,-2.7413293569285
18.3942,-2.75872091808161
18.3943,-2.84825526982303
18.3944,-2.89946378003344
18.3945,-2.97965826044226
18.3946,-3.05469970557361
18.3947,-3.05212317488324
18.3948,-3.0302226651269
18.3949,-3.00606769342793
18.395,-3.00220289817865
18.3951,-2.90204030912344
18.3952,-2.820557589348
18.3953,-2.70171524968879
18.3954,-2.64309926438372
18.3955,-2.55807390152481
18.3956,-2.44502885680502
18.3957,-2.28882708662009
18.3958,-2.14615213751216
18.3959,-1.97642378122882
18.396,-1.78447302734043
18.3961,-1.62794949963391
18.3962,-1.49010578544536
18.3963,-1.3422781133397
18.3964,-1.19058571482111
18.3965,-1.05048768066489
18.3966,-0.89911743125914
18.3967,-0.705878869693221
18.3968,-0.513606554125951
18.3969,-0.328741757047149
18.397,-0.153216850716427
18.3971,0.0377671023575273
18.3972,0.235514377569858
18.3973,0.393969838802457
18.3974,0.622313170387672
18.3975,0.836807757424163
18.3976,1.01490913062654
18.3977,1.20041799405873
18.3978,1.41813329199969
18.3979,1.56596071810334
18.398,1.73955330669276
18.3981,1.90445020165587
18.3982,2.06934713991984
18.3983,2.19334193961432
18.3984,2.32506631777763
18.3985,2.46097757223072
18.3986,2.55373219598191
18.3987,2.6094493928079
18.3988,2.67354028165931
18.3989,2.68899939204406
18.399,2.69479655859229
18.3991,2.64777509900202
18.3992,2.51282998099253
18.3993,2.39237781085189
18.3994,2.2600092855854
18.3995,2.06516030301862
18.3996,1.88416015180226
18.3997,1.75501238889647
18.3998,1.53439843333147
18.3999,1.38399449975992
18.4,1.27937190460467
18.4001,1.18951604047479
18.4002,1.12220466247411
18.4003,1.0159235455075
18.4004,0.931864848479911
18.4005,0.884199381939435
18.4006,0.854247433854987
18.4007,0.834923596561917
18.4008,0.834601532608173
18.4009,0.870028567747982
18.401,0.866163800255088
18.4011,0.967936013044765
18.4012,1.0017527304229
18.4013,0.985327467621077
18.4014,1.05038439175981
18.4015,1.0842011107407
18.4016,1.11769576645516
18.4017,1.19595732084222
18.4018,1.21367084201872
18.4019,1.23396087567224
18.402,1.26616727899053
18.4021,1.26133631843731
18.4022,1.26874379129372
18.4023,1.26584521495303
18.4024,1.27260855975916
18.4025,1.28130428885352
18.4026,1.29257653037025
18.4027,1.29772955510092
18.4028,1.27003204744744
18.4029,1.23041817135959
18.403,1.18532920825298
18.4031,1.09160858261396
18.4032,1.00110860246715
18.4033,0.915117522284028
18.4034,0.78274923650566
18.4035,0.628480608025379
18.4036,0.446192419700331
18.4037,0.244580391088503
18.4038,0.0307299176891744
18.4039,-0.133844786369793
18.404,-0.322252252359698
18.4041,-0.506472919656995
18.4042,-0.618873311419781
18.4043,-0.709373352477209
18.4044,-0.823706161504523
18.4045,-0.88908521352762
18.4046,-0.931919768648281
18.4047,-0.958651109129229
18.4048,-1.00084154060057
18.4049,-1.02499636919617
18.405,-1.05494835811821
18.4051,-1.16380613842948
18.4052,-1.21726884370135
18.4053,-1.3109896242585
18.4054,-1.41437236275158
18.4055,-1.51839925479087
18.4056,-1.61179803421801
18.4057,-1.73547093427465
18.4058,-1.83563313008239
18.4059,-1.90358884766449
18.406,-2.00697174171464
18.4061,-2.01148065368809
18.4062,-2.04368716953344
18.4063,-2.0591462982367
18.4064,-2.07331716684507
18.4065,-2.05238292934096
18.4066,-2.07847021012555
18.4067,-2.0707406452349
18.4068,-2.10037064496584
18.4069,-2.17670011320538
18.407,-2.23177328516412
18.4071,-2.27911689688764
18.4072,-2.29779669127074
18.4073,-2.35254781935987
18.4074,-2.3783130595641
18.4075,-2.3692952252389
18.4076,-2.35802293271688
18.4077,-2.36124358767967
18.4078,-2.30359386907026
18.4079,-2.34159759294633
18.408,-2.33805487272164
18.4081,-2.32903703961074
18.4082,-2.35931119469783
18.4083,-2.38539850101201
18.4084,-2.33902106914242
18.4085,-2.29360984070632
18.4086,-2.2894229901993
18.4087,-2.28201548559651
18.4088,-2.21824654028157
18.4089,-2.13644195260437
18.409,-2.07524955806584
18.4091,-1.9628488205437
18.4092,-1.84497301467798
18.4093,-1.77669524311682
18.4094,-1.68522881390324
18.4095,-1.60503467361194
18.4096,-1.47202193759422
18.4097,-1.36541853972883
18.4098,-1.1844182650883
18.4099,-1.1016476989871
18.41,-1.03304797896112
18.4101,-0.937716926721203
18.4102,-0.807280883492592
18.4103,-0.74415628949262
18.4104,-0.691981884624885
18.4105,-0.596650883111683
18.4106,-0.539323462309832
18.4107,-0.547053001950602
18.4108,-0.607601065095082
18.4109,-0.621771889073439
18.411,-0.683930279283275
18.4111,-0.789245284588853
18.4112,-0.840453504227456
18.4113,-0.913240037466545
18.4114,-0.95446427258742
18.4115,-0.969601297151144
18.4116,-0.995366446263527
18.4117,-0.978297034846478
18.4118,-0.941581698801592
18.4119,-0.837876989933502
18.412,-0.749309317349523
18.4121,-0.616296797959264
18.4122,-0.523864383250118
18.4123,-0.356391044598842
18.4124,-0.229497803660139
18.4125,-0.11484300939568
18.4126,-0.00791776072337078
18.4127,0.143774372323913
18.4128,0.279041233731577
18.4129,0.297398878733541
18.413,0.354404196875486
18.4131,0.461329424764923
18.4132,0.516402357960005
18.4133,0.587578487950772
18.4134,0.607224388125355
18.4135,0.618496625945404
18.4136,0.644905868891838
18.4137,0.715115807964592
18.4138,0.802717201362391
18.4139,0.901590835832809
18.414,0.960528541698111
18.4141,1.02590752893026
18.4142,1.10674559046655
18.4143,1.19434700074737
18.4144,1.23879183611508
18.4145,1.2745409439967
18.4146,1.27743952035906
18.4147,1.28774556970657
18.4148,1.27743952035906
18.4149,1.22043418653316
18.415,1.14249469473363
18.4151,1.04748581587989
18.4152,0.959240285814544
18.4153,0.914151330391981
18.4154,0.805615776916358
18.4155,0.744745690802709
18.4156,0.687418308960494
18.4157,0.605614068437739
18.4158,0.540557153194033
18.4159,0.460041169015516
18.416,0.339589255509933
18.4161,0.213340187605875
18.4162,0.106737016105098
18.4163,-0.0307843042189207
18.4164,-0.210173961166143
18.4165,-0.302284280077718
18.4166,-0.356713108682205
18.4167,-0.427889273792821
18.4168,-0.434330555974847
18.4169,-0.410819876232634
18.417,-0.340287840565927
18.4171,-0.276519155120214
18.4172,-0.133844786369793
18.4173,0.05295233238016
18.4174,0.211407803873877
18.4175,0.399171084658099
18.4176,0.523809828498691
18.4177,0.645872060708578
18.4178,0.75215316154516
18.4179,0.841042811690057
18.418,0.905455603382137
18.4181,0.959884413756224
18.4182,1.05875805544148
18.4183,1.04974026378606
18.4184,1.10674559046655
18.4185,1.1560213830684
18.4186,1.16149647124148
18.4187,1.20046621711846
18.4188,1.20594130547514
18.4189,1.15505519104012
18.419,1.04168866413513
18.4191,0.968902204961588
18.4192,0.850060602429875
18.4193,0.692893395961074
18.4194,0.496434393893436
18.4195,0.319621290983169
18.4196,0.201423821236365
18.4197,-0.000832352946573002
18.4198,-0.199223783895777
18.4199,-0.386665068906554
18.42,-0.571851942138065
18.4201,-0.746410739175176
18.4202,-0.919681324014562
18.4203,-1.10873311658011
18.4204,-1.29520846060935
18.4205,-1.44529056954223
18.4206,-1.54384236847202
18.4207,-1.61759520054222
18.4208,-1.69553488934326
18.4209,-1.76638916548317
18.421,-1.84980398956304
18.4211,-1.95383099793476
18.4212,-2.00342902520604
18.4213,-2.06075662418449
18.4214,-2.11454151534739
18.4215,-2.09747205791792
18.4216,-2.10810021055234
18.4217,-2.05560358117896
18.4218,-1.96832392724236
18.4219,-1.89199450631169
18.422,-1.80407076321465
18.4221,-1.73611506406575
18.4222,-1.63015572786551
18.4223,-1.57637090848699
18.4224,-1.46880129075348
18.4225,-1.41405029810892
18.4226,-1.33611066137043
18.4227,-1.29617465428696
18.4228,-1.24432226302322
18.4229,-1.18151968472608
18.423,-1.06944125657394
18.4231,-0.938683119738913
18.4232,-0.831757768527544
18.4233,-0.705508581805991
18.4234,-0.540611718911465
18.4235,-0.381834107516326
18.4236,-0.210818089244063
18.4237,-0.0372255841376547
18.4238,0.129281493880014
18.4239,0.284838384795102
18.424,0.480653260991459
18.4241,0.670348920110509
18.4242,0.867452056085403
18.4243,1.09064239062848
18.4244,1.30288257985522
18.4245,1.51608900179066
18.4246,1.69064777213194
18.4247,1.90321016836659
18.4248,2.0462067292603
18.4249,2.18115171490449
18.425,2.29129776708447
18.4251,2.41625881543003
18.4252,2.52028569348502
18.4253,2.57084985058053
18.4254,2.6394496402897
18.4255,2.7421883141274
18.4256,2.8252810544061
18.4257,2.8813203546962
18.4258,2.92351086802446
18.4259,3.02013038294839
18.426,3.09066264580415
18.4261,3.09323916709889
18.4262,3.09066264580415
18.4263,3.09645981874506
18.4264,3.11320720780361
18.4265,3.12415742418042
18.4266,3.04976037287721
18.4267,2.99178865582371
18.4268,2.95893802043292
18.4269,3.0227069037107
18.427,3.02496135939346
18.4271,3.042997005386
18.4272,3.05942232666801
18.4273,3.08776405937113
18.4274,3.10741003457316
18.4275,3.1012907962722
18.4276,3.05459134973845
18.4277,2.97697366301367
18.4278,2.91867989296707
18.4279,2.75732536237424
18.428,2.52028569348502
18.4281,2.18082965045924
18.4282,1.81335423818929
18.4283,1.39724735003686
18.4284,0.963105053467732
18.4285,0.5363703220201
18.4286,0.125094662311518
18.4287,-0.27780741135317
18.4288,-0.703254132257672
18.4289,-1.11678472759713
18.429,-1.4813618135687
18.4291,-1.86751756469377
18.4292,-2.19634609742139
18.4293,-2.49232427461836
18.4294,-2.72614402958901
18.4295,-2.93516489398593
18.4296,-3.10038489974417
18.4297,-3.17188365101299
18.4298,-3.21793916455266
18.4299,-3.20859923449175
18.43,-3.15320379497694
18.4301,-3.10779242702201
18.4302,-3.01503731939496
18.4303,-2.89716108770887
18.4304,-2.76285954668167
18.4305,-2.64305103593115
18.4306,-2.51486887050746
18.4307,-2.40440036755249
18.4308,-2.35029336094789
18.4309,-2.3354783489481
18.431,-2.3119675705313
18.4311,-2.35286988484868
18.4312,-2.3567346707415
18.4313,-2.38217784578739
18.4314,-2.34771683706927
18.4315,-2.40117971212037
18.4316,-2.39956938441754
18.4317,-2.39377220476026
18.4318,-2.39248394262968
18.4319,-2.3023056073275
18.432,-2.25463992665712
18.4321,-2.15512173849532
18.4322,-2.0749274928616
18.4323,-1.89618135175654
18.4324,-1.70358651097149
18.4325,-1.50068569554245
18.4326,-1.27717284565571
18.4327,-1.06074551745396
18.4328,-0.819841390169672
18.4329,-0.51581277968918
18.433,-0.220480010455831
18.4331,0.0413580290980457
18.4332,0.335402424245812
18.4333,0.565678140244941
18.4334,0.795953858413406
18.4335,1.07196267902706
18.4336,1.27808364844057
18.4337,1.46745732131864
18.4338,1.62365842402064
18.4339,1.79016561303068
18.434,1.95731697117937
18.4341,2.06714091340765
18.4342,2.16730294393765
18.4343,2.27841518663251
18.4344,2.27100770302513
18.4345,2.30707892860027
18.4346,2.28678886388786
18.4347,2.23622473799434
18.4348,2.12060360264563
18.4349,2.04652879362594
18.435,1.98823514637861
18.4351,1.88485250419469
18.4352,1.80498056790159
18.4353,1.71029368785181
18.4354,1.60369044637323
18.4355,1.42333454060119
18.4356,1.26101425440114
18.4357,1.07131855104476
18.4358,0.900302579984465
18.4359,0.684519733491821
18.436,0.468092767447185
18.4361,0.28709283242832
18.4362,0.0555288442104577
18.4363,-0.139641938721988
18.4364,-0.288113461273026
18.4365,-0.486182879257618
18.4366,-0.625958723481884
18.4367,-0.765734593907187
18.4368,-0.783126063645674
18.4369,-0.829825382832702
18.437,-0.87491438393154
18.4371,-0.899069207304986
18.4372,-0.885220441786952
18.4373,-0.854302268738773
18.4374,-0.780871613838896
18.4375,-0.722255921536749
18.4376,-0.652690051416668
18.4377,-0.611787899424591
18.4378,-0.58344625210472
18.4379,-0.547375066103917
18.438,-0.523542319106163
18.4381,-0.508405304482603
18.4382,-0.530305666155909
18.4383,-0.509371496897093
18.4384,-0.527729152987485
18.4385,-0.569597492997894
18.4386,-0.683930279283275
18.4387,-0.808569140576374
18.4388,-0.917104809387
18.4389,-0.995366446263527
18.439,-1.13804098127868
18.4391,-1.25334006979746
18.4392,-1.39569261386256
18.4393,-1.52934945542601
18.4394,-1.58313426861541
18.4395,-1.6072891271347
18.4396,-1.62210410774114
18.4397,-1.60181402574413
18.4398,-1.57153993703514
18.4399,-1.48587071928435
18.44,-1.45044360421936
18.4401,-1.39826913090419
18.4402,-1.3451284698967
18.4403,-1.35479040779973
18.4404,-1.32709285302019
18.4405,-1.28522445938964
18.4406,-1.22950729511421
18.4407,-1.19826703816113
18.4408,-1.17217981478337
18.4409,-1.15994136477419
18.441,-1.14866910844661
18.4411,-1.1193612431487
18.4412,-1.11614059871122
18.4413,-1.08908718621457
18.4414,-1.12837904767935
18.4415,-1.10358008559393
18.4416,-1.0575248733709
18.4417,-1.03111559260683
18.4418,-0.986992772674117
18.4419,-0.930631511306491
18.442,-0.916138616404538
18.4421,-0.940293441438632
18.4422,-1.00824902125898
18.4423,-1.06138964627287
18.4424,-1.11066550321293
18.4425,-1.21791297271549
18.4426,-1.32483840096004
18.4427,-1.44979947488138
18.4428,-1.58120187999586
18.4429,-1.65881949683094
18.443,-1.76703329532697
18.4431,-1.85270257452499
18.4432,-1.93708361371054
18.4433,-2.03177075831183
18.4434,-2.09392934044969
18.4435,-2.16059684835862
18.4436,-2.15415554264679
18.4437,-2.12935651685949
18.4438,-2.09521760134281
18.4439,-2.01405717484268
18.444,-1.91937003511591
18.4441,-1.8089017375595
18.4442,-1.70165412176542
18.4443,-1.53611281478482
18.4444,-1.47942942541938
18.4445,-1.39376022609107
18.4446,-1.39472641997577
18.4447,-1.40277803576278
18.4448,-1.49134581914583
18.4449,-1.56091180004114
18.445,-1.63241018152941
18.4451,-1.7589816723588
18.4452,-1.83853171493122
18.4453,-1.97315490381331
18.4454,-2.09553966656688
18.4455,-2.14578184541448
18.4456,-2.12677999480886
18.4457,-2.09006455780063
18.4458,-2.04014445263958
18.4459,-1.8994020021323
18.446,-1.79762946418645
18.4461,-1.65141200577592
18.4462,-1.49746504848597
18.4463,-1.33482240302392
18.4464,-1.17121362135087
18.4465,-1.0295052706501
18.4466,-0.864930390549201
18.4467,-0.747698996140015
18.4468,-0.625958723481884
18.4469,-0.516778972112328
18.447,-0.425634825040022
18.4471,-0.320319867928229
18.4472,-0.217903498124787
18.4473,-0.137387490581932
18.4474,-0.109045857152651
18.4475,-0.0639568960957523
18.4476,-0.0153252325235414
18.4477,-0.0130707845807045
18.4478,0.0017441589645723
18.4479,-0.00985014466791969
18.448,0.00142209497590213
18.4481,0.0532743963591478
18.4482,0.0381373892840048
18.4483,0.0117281425819969
18.4484,0.0120502065686513
18.4485,0.023966574031354
18.4486,-0.0240209603333065
18.4487,-0.0452771840745175
18.4488,-0.038191776127813
18.4489,-0.0217665123779888
18.449,0.00206622295317888
18.4491,0.0561729721674601
18.4492,0.179523472090233
18.4493,0.258751204930607
18.4494,0.340233383396375
18.4495,0.4854842200444
18.4496,0.647482380403422
18.4497,0.89965845206056
18.4498,1.18210856809143
18.4499,1.43396265547643
18.45,1.68613887351573
18.4501,1.92543260466163
18.4502,2.14347017614773
18.4503,2.37889932327317
18.4504,2.5805117921107
18.4505,2.7531385191831
18.4506,2.90193251326775
18.4507,3.0394542891343
18.4508,3.18212916398565
18.4509,3.28615625647674
18.451,3.42850917619067
18.4511,3.52545090916519
18.4512,3.57601521466635
18.4513,3.65910816950453
18.4514,3.74091288594641
18.4515,3.75959270655816
18.4516,3.83237960630534
18.4517,3.86812893172418
18.4518,3.86716273367508
18.4519,3.84912703742054
18.452,3.83560026605161
18.4521,3.73318330538407
18.4522,3.71385935494795
18.4523,3.67231286616779
18.4524,3.54445278088349
18.4525,3.42174580066244
18.4526,3.29903887093011
18.4527,3.13220905409926
18.4528,2.95732769524715
18.4529,2.74927374089293
18.453,2.50031768403614
18.4531,2.23235996425067
18.4532,1.96762302940166
18.4533,1.67100185693141
18.4534,1.3595658537575
18.4535,1.01850005735312
18.4536,0.697724355083918
18.4537,0.310281436574853
18.4538,-0.0794159682948887
18.4539,-0.441093902315939
18.454,-0.831113639961942
18.4541,-1.15736484902027
18.4542,-1.51260208986417
18.4543,-1.80793554268547
18.4544,-2.11389738486216
18.4545,-2.36704076670037
18.4546,-2.60086041713698
18.4547,-2.76640227228662
18.4548,-2.90328034426234
18.4549,-3.03532749613346
18.455,-3.15481412733502
18.4551,-3.20537856904127
18.4552,-3.28943795213372
18.4553,-3.32808595482278
18.4554,-3.29684548546782
18.4555,-3.29201448543973
18.4556,-3.27301255299843
18.4557,-3.2623843541924
18.4558,-3.1918517746395
18.4559,-3.1838001116803
18.456,-3.15288172850666
18.4561,-3.13162534244554
18.4562,-3.14193146878029
18.4563,-3.17252778400643
18.4564,-3.19700483908022
18.4565,-3.23178802706538
18.4566,-3.24434862402143
18.4567,-3.22148189674388
18.4568,-3.18412217819331
18.4569,-3.13323567465557
18.457,-3.01696971710649
18.4571,-2.92872357048132
18.4572,-2.83081547352334
18.4573,-2.69458157159847
18.4574,-2.55544914764019
18.4575,-2.4427261699153
18.4576,-2.35963326019393
18.4577,-2.24658829213667
18.4578,-2.16027478306996
18.4579,-2.08491151433916
18.458,-1.98925815953995
18.4581,-1.86590723964592
18.4582,-1.73611506406575
18.4583,-1.61920552453601
18.4584,-1.51614480175434
18.4585,-1.40374422966698
18.4586,-1.26267994127671
18.4587,-1.150601495228
18.4588,-0.994400253150737
18.4589,-0.844962404267283
18.459,-0.715170508524325
18.4591,-0.57249607046502
18.4592,-0.454620595153096
18.4593,-0.314200650586174
18.4594,-0.177323429657908
18.4595,-0.0530067200546178
18.4596,0.0581053560370994
18.4597,0.18113379188689
18.4598,0.230409577179833
18.4599,0.278719169783319
18.46,0.341521639168983
18.4601,0.384678207356818
18.4602,0.364388179074597
18.4603,0.325096378040139
18.4604,0.313502076028464
18.4605,0.293856175319423
18.4606,0.304806349497616
18.4607,0.335724488189345
18.4608,0.322841930429321
18.4609,0.371795649725988
18.461,0.396916637080089
18.4611,0.466160383824034
18.4612,0.478076749496015
18.4613,0.559558925448813
18.4614,0.616242178380409
18.4615,0.697724355083918
18.4616,0.776307957544954
18.4617,0.823329294249911
18.4618,0.842653131462851
18.4619,0.865197608382776
18.462,0.908998306974727
18.4621,0.91672784210503
18.4622,0.91769403399819
18.4623,0.980496508000799
18.4624,1.001430666445
18.4625,1.03879008827024
18.4626,1.03975628022465
18.4627,1.06841997512761
18.4628,1.0362135763945
18.4629,1.05746979948768
18.463,1.07357299898396
18.4631,1.07969221483512
18.4632,1.09225271060462
18.4633,1.07196267902706
18.4634,1.0639110792669
18.4635,1.03460325647414
18.4636,0.975665548392704
18.4637,0.907710051122241
18.4638,0.807870224571296
18.4639,0.721235022882147
18.464,0.663585577372029
18.4641,0.596274214253876
18.4642,0.529606979354737
18.4643,0.467126575635644
18.4644,0.519300933388266
18.4645,0.525420148180942
18.4646,0.53347174659207
18.4647,0.549252879479111
18.4648,0.560525117258637
18.4649,0.558914797575614
18.465,0.568898779611923
18.4651,0.567610523865077
18.4652,0.588866743699045
18.4653,0.661009065854486
18.4654,0.721235022882147
18.4655,0.80175100951166
18.4656,0.883233190060165
18.4657,0.988548107374761
18.4658,1.12317085447999
18.4659,1.25328471755917
18.466,1.40014592673207
18.4661,1.50707120653604
18.4662,1.58694311066493
18.4663,1.67647694800118
18.4664,1.71802322860719
18.4665,1.73734708085683
18.4666,1.75312822724805
18.4667,1.74346630084445
18.4668,1.6568310331698
18.4669,1.57502673738975
18.467,1.46616906491783
18.4671,1.38146621039928
18.4672,1.27615126419711
18.4673,1.12671355850702
18.4674,0.983717147746289
18.4675,0.800140689761094
18.4676,0.588222615824895
18.4677,0.353438005048704
18.4678,0.177913152292522
18.4679,-0.0800600963068243
18.468,-0.346084993987359
18.4681,-0.589887535494448
18.4682,-0.77571858573812
18.4683,-0.984738322113464
18.4684,-1.1844182650883
18.4685,-1.39569261386256
18.4686,-1.61759520054222
18.4687,-1.80568108798924
18.4688,-1.9760534897884
18.4689,-2.16478369714073
18.469,-2.2900671210428
18.4691,-2.3692952252389
18.4692,-2.46623695874095
18.4693,-2.54192238794496
18.4694,-2.62308295599596
18.4695,-2.65432333976779
18.4696,-2.60536933791946
18.4697,-2.58346886623804
18.4698,-2.53451487695973
18.4699,-2.47171207422214
18.47,-2.41309613739567
18.4701,-2.2707431963268
18.4702,-2.11357531962002
18.4703,-1.9644591460343
18.4704,-1.79473087966032
18.4705,-1.58893143452899
18.4706,-1.44368024621811
18.4707,-1.29746291252684
18.4708,-1.19762290917249
18.4709,-1.13256588555028
18.471,-1.01211379381525
18.4711,-0.994400253150737
18.4712,-0.9383610553995
18.4713,-0.870405483674307
18.4714,-0.792143862950344
18.4715,-0.659775463803815
18.4716,-0.565410658897625
18.4717,-0.45301027456634
18.4718,-0.329659726047944
18.4719,-0.218547626207007
18.472,-0.160576100212864
18.4721,-0.105181089004491
18.4722,-0.0253092163092401
18.4723,-0.0340049441748929
18.4724,-0.0259533442976079
18.4725,-0.00952808067699929
18.4726,-0.0104942726499555
18.4727,0.0400697731731374
18.4728,0.0426462850220126
18.4729,0.0603598038824275
18.473,0.071632043067774
18.4731,0.0516640764636339
18.4732,0.0738864908966776
18.4733,0.0374932613204873
18.4734,0.042324221041109
18.4735,0.0452227968671326
18.4736,0.0471551807485202
18.4737,0.0365270693747662
18.4738,0.0175252943322667
18.4739,-0.0327166881916915
18.474,-0.0588038720661921
18.4741,-0.0951971046725394
18.4742,-0.112588561298193
18.4743,-0.113554753339508
18.4744,-0.0974515527411334
18.4745,-0.0906882085464008
18.4746,-0.0771615202554231
18.4747,-0.0926205925986608
18.4748,-0.103570768946011
18.4749,-0.0626686400866525
18.475,-0.0755512002294267
18.4751,-0.0604141920734731
18.4752,-0.0671775361235121
18.4753,-0.0887558244968304
18.4754,-0.0694319841472188
18.4755,-0.0771615202554231
18.4756,-0.0897220165212799
18.4757,-0.064601024100731
18.4758,-0.0668554721204133
18.4759,-0.0497860800580274
18.476,-0.0262754082918921
18.4761,0.00689718277467257
18.4762,0.0233224460625469
18.4763,0.0761409387228903
18.4764,0.127671174046947
18.4765,0.1595555065225
18.4766,0.27839710583503
18.4767,0.386610590998963
18.4768,0.495790266020109
18.4769,0.628158544087145
18.477,0.705131825747786
18.4771,0.809480544325823
18.4772,0.861976968811015
18.4773,0.960206477727142
18.4774,1.0484520078393
18.4775,1.08871000665933
18.4776,1.10577939847143
18.4777,1.13347690258278
18.4778,1.14603739880863
18.4779,1.17019219956154
18.478,1.13412103059166
18.4781,1.13734167064042
18.4782,1.1560213830684
18.4783,1.1247811744912
18.4784,1.07099648705371
18.4785,0.995955578829213
18.4786,0.866163800255088
18.4787,0.697724355083918
18.4788,0.564067820561612
18.4789,0.414308089805363
18.479,0.261649780481317
18.4791,0.144740564216785
18.4792,0.0558509081889874
18.4793,-0.0198341284188789
18.4794,-0.0732967521960922
18.4795,-0.0800600963068243
18.4796,-0.0259533442976079
18.4797,0.0175252943322667
18.4798,0.0658348914952871
18.4799,0.104482568314091
18.48,0.186930943146189
18.4801,0.269057251321303
18.4802,0.276142658196155
18.4803,0.245224518991836
18.4804,0.284838384795102
18.4805,0.30577254133534
18.4806,0.27743091398998
18.4807,0.212373995740048
18.4808,0.138621348888166
18.4809,0.0729202989703349
18.481,-0.0172576164771043
18.4811,-0.115165073409917
18.4812,-0.20727538481991
18.4813,-0.307115241078021
18.4814,-0.412108132641102
18.4815,-0.511948010007907
18.4816,-0.587633086301927
18.4817,-0.670403582514593
18.4818,-0.705186517584357
18.4819,-0.753496152512269
18.482,-0.716458765430268
18.4821,-0.715170508524325
18.4822,-0.69037156354923
18.4823,-0.672335967751594
18.4824,-0.616618862141346
18.4825,-0.57958148209663
18.4826,-0.596006754764614
18.4827,-0.565732723058392
18.4828,-0.580225610429975
18.4829,-0.587311022132106
18.483,-0.597295011459295
18.4831,-0.577971161265604
18.4832,-0.56154588897869
18.4833,-0.47813127605959
18.4834,-0.382800299792392
18.4835,-0.283926628480996
18.4836,-0.208885705011372
18.4837,-0.128369698060941
18.4838,-0.0526846560546436
18.4839,0.0458669248278282
18.484,0.117043063118102
18.4841,0.224290362061503
18.4842,0.281617745316562
18.4843,0.333792104527791
18.4844,0.413663961927413
18.4845,0.469703087132937
18.4846,0.525420148180942
18.4847,0.588866743699045
18.4848,0.642651421319926
18.4849,0.682587349846875
18.485,0.746356010528152
18.4851,0.759238568355484
18.4852,0.817532143111146
18.4853,0.874215399205258
18.4854,0.910930690754823
18.4855,0.936373744016272
18.4856,0.900624643946484
18.4857,0.935085488147768
18.4858,0.838788364009713
18.4859,0.792411154969583
18.486,0.77276525412163
18.4861,0.733795516686543
18.4862,0.673891623452652
18.4863,0.575662122284138
18.4864,0.493213754526631
18.4865,0.415596345561096
18.4866,0.381779631892415
18.4867,0.335402424245812
18.4868,0.356980708412642
18.4869,0.277752977938361
18.487,0.271311698964932
18.4871,0.269057251321303
18.4872,0.335080360302255
18.4873,0.353760068990986
18.4874,0.327672889593878
18.4875,0.304484285551654
18.4876,0.288381088218086
18.4877,0.284516320847382
18.4878,0.298043006626651
18.4879,0.310925564465786
18.488,0.295466495053536
18.4881,0.290957599796222
18.4882,0.299009198466106
18.4883,0.285160448742793
18.4884,0.291923791637547
18.4885,0.263904228130058
18.4886,0.204644460800953
18.4887,0.179845536049649
18.4888,0.116720999149723
18.4889,0.0816160262897141
18.489,0.00625305479929494
18.4891,-0.0890778885049057
18.4892,-0.195036951436945
18.4893,-0.322574316431968
18.4894,-0.482318109713063
18.4895,-0.665250555241323
18.4896,-0.879423284221907
18.4897,-1.06074551745396
18.4898,-1.26493439304022
18.4899,-1.4005235833278
18.49,-1.61308629339395
18.4901,-1.73901364813922
18.4902,-1.90262265253729
18.4903,-1.94577937080337
18.4904,-1.96896805744791
18.4905,-1.97637555489825
18.4906,-1.94449111047963
18.4907,-1.88651940080425
18.4908,-1.81534303678448
18.4909,-1.67846545204414
18.491,-1.58216807430449
18.4911,-1.41662681525678
18.4912,-1.27749491020245
18.4913,-1.15478833327935
18.4914,-0.981517678470877
18.4915,-0.842063825666535
18.4916,-0.647859088464951
18.4917,-0.507761176206901
18.4918,-0.36573090305982
18.4919,-0.259771824232215
18.492,-0.119029841586829
18.4921,-0.0230547683520566
18.4922,0.065190763541675
18.4923,0.186930943146189
18.4924,0.220103530657107
18.4925,0.280007425576173
18.4926,0.335080360302255
18.4927,0.344420214656028
18.4928,0.352793877164076
18.4929,0.352793877164076
18.493,0.36245579542469
18.4931,0.356336580528479
18.4932,0.340555447339561
18.4933,0.309637308683814
18.4934,0.324452250151458
18.4935,0.309959372629347
18.4936,0.270667571066909
18.4937,0.183388239600445
18.4938,0.10255018449123
18.4939,-0.0278857282643186
18.494,-0.0662113441144311
18.4941,-0.140286066762728
18.4942,-0.220480010455831
18.4943,-0.320641931999884
18.4944,-0.358967557268732
18.4945,-0.408565427522171
18.4946,-0.419193542920173
18.4947,-0.505184663109086
18.4948,-0.523542319106163
18.4949,-0.506150855519831
18.495,-0.498743380399385
18.4951,-0.538357269859958
18.4952,-0.558003183236285
18.4953,-0.602448038259745
18.4954,-0.65848720700101
18.4955,-0.711305737820868
18.4956,-0.795042441324722
18.4957,-0.870405483674307
18.4958,-0.961227623939229
18.4959,-1.06879712774544
18.496,-1.15478833327935
18.4961,-1.24464432754798
18.4962,-1.31904123856982
18.4963,-1.38023351192348
18.4964,-1.42500049609095
18.4965,-1.3696053796478
18.4966,-1.30712484943828
18.4967,-1.1563986556159
18.4968,-0.971533683294268
18.4969,-0.75091963856288
18.497,-0.509693561035507
18.4971,-0.237549404795948
18.4972,0.00625305479929494
18.4973,0.205932716625688
18.4974,0.413019834049407
18.4975,0.599816917564161
18.4976,0.751186969708398
18.4977,0.921880865540071
18.4978,1.05875805544148
18.4979,1.24619930883139
18.498,1.42558898920126
18.4981,1.57695912223345
18.4982,1.75570474097799
18.4983,2.00562662063623
18.4984,2.21818912744227
18.4985,2.38405235649486
18.4986,2.57471462716603
18.4987,2.72994985001728
18.4988,2.87777764005866
18.4989,2.98534735452519
18.499,3.00112854291702
18.4991,3.00982430009063
18.4992,3.00112854291702
18.4993,2.94573335412475
18.4994,2.86328471689666
18.4995,2.75764742723697
18.4996,2.65555287896491
18.4997,2.46746708982374
18.4998,2.28743299291341
18.4999,2.08163381058194
18.5,1.85760653978163
18.5001,1.59866691926507
18.5002,1.35583058471612
18.5003,1.12587686653303
18.5004,0.893346673073169
18.5005,0.69720972753923
18.5006,0.484003400722444
18.5007,0.316208087910565
18.5008,0.171923437295194
18.5009,0.0701512233540316
18.501,-0.0119750925175164
18.5011,-0.093457284626011
18.5012,-0.207145884964844
18.5013,-0.310206382054465
18.5014,-0.35883805764436
18.5015,-0.434523120591964
18.5016,-0.506021356160373
18.5017,-0.59233454968013
18.5018,-0.670274083498538
18.5019,-0.728889771508056
18.502,-0.853850705871698
18.5021,-0.949181744721404
18.5022,-1.13147019440997
18.5023,-1.35788155678118
18.5024,-1.48541915802244
18.5025,-1.71086450734801
18.5026,-1.94854846192745
18.5027,-2.11183549957349
18.5028,-2.29380241322084
18.5029,-2.44871592406617
18.503,-2.57142294247092
18.5031,-2.70282579398107
18.5032,-2.7472708906389
18.5033,-2.75016948415905
18.5034,-2.78688500485869
18.5035,-2.74501642903421
18.5036,-2.71313190268728
18.5037,-2.63293750476593
18.5038,-2.50636567150633
18.5039,-2.38881172939784
18.504,-2.22520248473526
18.5041,-2.05966093451926
18.5042,-1.88574577584116
18.5043,-1.6973377827925
18.5044,-1.44258455550051
18.5045,-1.19234037970334
18.5046,-0.959809868244758
18.5047,-0.724702936486363
18.5048,-0.491850534220765
18.5049,-0.302798908495185
18.505,-0.144665463119375
18.5051,-0.00166904481527985
18.5052,0.0988149170295622
18.5053,0.217012391383027
18.5054,0.290120908264614
18.5055,0.349702738073152
18.5056,0.340684947669928
18.5057,0.417014101668712
18.5058,0.432151106783293
18.5059,0.502683109052813
18.506,0.526193776418122
18.5061,0.537788078130178
18.5062,0.541330781431177
18.5063,0.60026848186138
18.5064,0.591572755556852
18.5065,0.604455313047126
18.5066,0.615727550862448
18.5067,0.602200865485394
18.5068,0.546161740478218
18.5069,0.553569211017798
18.507,0.533279183019929
18.5071,0.499784533623211
18.5072,0.450186687310992
18.5073,0.449864623373288
18.5074,0.461780989062044
18.5075,0.479816569542543
18.5076,0.46951052355654
18.5077,0.511700899276534
18.5078,0.511056771403485
18.5079,0.549704443779616
18.508,0.596403714614231
18.5081,0.576435750520212
18.5082,0.571926855405372
18.5083,0.543585228986424
18.5084,0.511378835340011
18.5085,0.493021190952864
18.5086,0.463713372686104
18.5087,0.45566177425047
18.5088,0.450186687310992
18.5089,0.375467853419027
18.509,0.377078173123933
18.5091,0.341973203442903
18.5092,0.346804162588319
18.5093,0.313309512403141
18.5094,0.325225878364779
18.5095,0.334887796686946
18.5096,0.31459776818448
18.5097,0.303003466137059
18.5098,0.289798844317217
18.5099,0.224097798383704
18.51,0.150023087866947
18.5101,0.0379448254392687
18.5102,-0.102475076922645
18.5103,-0.191364747183627
18.5104,-0.319868304168937
18.5105,-0.340158340910827
18.5106,-0.39974019727873
18.5107,-0.33661563605314
18.5108,-0.27220282261243
18.5109,-0.210688589393895
18.511,-0.163989304586773
18.5111,-0.0551316680132652
18.5112,0.0823896544138245
18.5113,0.165160094111364
18.5114,0.213469687875834
18.5115,0.314919832129749
18.5116,0.448898431560119
18.5117,0.551314763462151
18.5118,0.669190164696801
18.5119,0.766453475491822
18.512,0.884006818227805
18.5121,1.03376656465124
18.5122,1.24471848856091
18.5123,1.37966332566316
18.5124,1.53683060500047
18.5125,1.71750859925825
18.5126,1.91332365996752
18.5127,2.10108717213279
18.5128,2.27822261964032
18.5129,2.46179942327646
18.513,2.62379796327926
18.5131,2.75391214465348
18.5132,2.88628082444292
18.5133,2.97291631213034
18.5134,3.02348052846912
18.5135,3.07565507791445
18.5136,3.07951985967226
18.5137,3.00737727406351
18.5138,2.92203003802554
18.5139,2.77001538790415
18.514,2.55680849993571
18.5141,2.31848068452169
18.5142,2.04118319767054
18.5143,1.73747657986271
18.5144,1.45309393648384
18.5145,1.15550675504999
18.5146,0.833442777072648
18.5147,0.544873484732309
18.5148,0.230217013506204
18.5149,-0.0589964360286139
18.515,-0.416165466455168
18.5151,-0.727601514575578
18.5152,-1.03807151120796
18.5153,-1.33115019546437
18.5154,-1.61778776928902
18.5155,-1.83840221981068
18.5156,-2.00136714002419
18.5157,-2.13148147992731
18.5158,-2.22552455009176
18.5159,-2.26062967594721
18.516,-2.3140925358524
18.5161,-2.25966347976956
18.5162,-2.19138562414129
18.5163,-2.12536224001754
18.5164,-2.02358963507807
18.5165,-1.93502172859066
18.5166,-1.84645384454767
18.5167,-1.73212078975513
18.5168,-1.649028056079
18.5169,-1.50989607567094
18.517,-1.41231047806239
18.5171,-1.27478889651635
18.5172,-1.10731536097189
18.5173,-0.975591021716171
18.5174,-0.827763498504273
18.5175,-0.651272295568058
18.5176,-0.50537722788517
18.5177,-0.339192148675655
18.5178,-0.194263323494989
18.5179,-0.0541654760110202
18.518,0.0563024723210539
18.5181,0.146480384263313
18.5182,0.215402071607602
18.5183,0.283357565363091
18.5184,0.295918059312831
18.5185,0.32393762258682
18.5186,0.32264936680846
18.5187,0.307512361381868
18.5188,0.312987448457741
18.5189,0.319750791305674
18.519,0.294307739578148
18.5191,0.29269741984275
18.5192,0.351957185671236
18.5193,0.411216950765883
18.5194,0.395113753788149
18.5195,0.378688492828373
18.5196,0.346160034702556
18.5197,0.318462535525995
18.5198,0.256304193621428
18.5199,0.139394977039153
18.52,0.0427757851634353
18.5201,-0.0931352206165132
18.5202,-0.195551579635642
18.5203,-0.341124533146943
18.5204,-0.480578289666535
18.5205,-0.619065876474445
18.5206,-0.779131793792367
18.5207,-0.886057136231474
18.5208,-0.991372175623057
18.5209,-1.05030995842699
18.521,-1.09153420372585
18.5211,-1.12341858313968
18.5212,-1.15594709344227
18.5213,-1.15369264216683
18.5214,-1.137267354602
18.5215,-1.04998789402298
18.5216,-0.992338368733646
18.5217,-0.893464615454131
18.5218,-0.811660284617001
18.5219,-0.701836376431887
18.522,-0.658679772159548
18.5221,-0.538227770563863
18.5222,-0.424217069100691
18.5223,-0.310528446123472
18.5224,-0.213909229793322
18.5225,-0.104407460993967
18.5226,-0.0325871881243346
18.5227,0.0495391287550456
18.5228,0.100747300857695
18.5229,0.169346925608389
18.523,0.259524833126312
18.5231,0.329412709640407
18.5232,0.435049682227611
18.5233,0.519430433752443
18.5234,0.605099440921984
18.5235,0.669834292576737
18.5236,0.699464175130446
18.5237,0.729094057854518
18.5238,0.707515773678648
18.5239,0.671122548336808
18.524,0.664037141659659
18.5241,0.687869873242981
18.5242,0.695921471773259
18.5243,0.712346732813859
18.5244,0.659528246505498
18.5245,0.608642144234342
18.5246,0.588352116186168
18.5247,0.568706216038209
18.5248,0.557756042192915
18.5249,0.539720461748891
18.525,0.53585569451149
18.5251,0.496563894256615
18.5252,0.496885958193294
18.5253,0.496241830319933
18.5254,0.500428661496482
18.5255,0.519108369815968
18.5256,0.510734707466957
18.5257,0.554535402827398
18.5258,0.578690198078017
18.5259,0.602844993360132
18.526,0.618626126302598
18.5261,0.617015806613524
18.5262,0.594793394928251
18.5263,0.59318307524246
18.5264,0.515887730451126
18.5265,0.446643983995705
18.5266,0.423133316505723
18.5267,0.415081718034945
18.5268,0.420234741057219
18.5269,0.424421572260271
18.527,0.473053226865035
18.5271,0.553247147081269
18.5272,0.595115458865432
18.5273,0.631508683824964
18.5274,0.679496210783903
18.5275,0.713312924641482
18.5276,0.781268417070337
18.5277,0.845359143373507
18.5278,0.93585911629343
18.5279,0.973862664734296
18.528,0.966133129400318
18.5281,0.980303944202635
18.5282,0.893024609112382
18.5283,0.866615364471948
18.5284,0.753570917646074
18.5285,0.690768448712501
18.5286,0.560332553685549
18.5287,0.41153901470505
18.5288,0.23859067628422
18.5289,0.064676135748796
18.529,-0.123731301860186
18.5291,-0.335327379744392
18.5292,-0.530176166843791
18.5293,-0.732110413849876
18.5294,-0.962064318714186
18.5295,-1.14692928840008
18.5296,-1.33823561638498
18.5297,-1.4970134872591
18.5298,-1.70861005322245
18.5299,-1.87028665481958
18.53,-2.07834071612064
18.5301,-2.25966347976956
18.5302,-2.42681546437487
18.5303,-2.5946116763818
18.5304,-2.77818922317356
18.5305,-2.90379498719414
18.5306,-3.030689079306
18.5307,-3.13568271840672
18.5308,-3.23004820701886
18.5309,-3.29317326539763
18.531,-3.32087100065715
18.5311,-3.30992073282061
18.5312,-3.28769813208719
18.5313,-3.2000960170511
18.5314,-3.13568271840672
18.5315,-3.07191357013466
18.5316,-3.01265336678133
18.5317,-2.94920631723108
18.5318,-2.92537341958466
18.5319,-2.90637151633702
18.532,-2.86643531758487
18.5321,-2.83326251211365
18.5322,-2.81973573830227
18.5323,-2.76015352875121
18.5324,-2.69863893743307
18.5325,-2.61683421487589
18.5326,-2.4999243583661
18.5327,-2.47351497601316
18.5328,-2.39718543329234
18.5329,-2.34372255864713
18.533,-2.35177419578082
18.5331,-2.35016386833676
18.5332,-2.25515456431382
18.5333,-2.1662645300408
18.5334,-2.06545810800709
18.5335,-1.95821041463298
18.5336,-1.79041454005404
18.5337,-1.62744971339549
18.5338,-1.47865579944643
18.5339,-1.29024799498507
18.534,-1.11472284310754
18.5341,-0.92277246892482
18.5342,-0.741450276727296
18.5343,-0.641932433886068
18.5344,-0.506987548574113
18.5345,-0.37590745428491
18.5346,-0.262218836883378
18.5347,-0.150462615528438
18.5348,-0.0409608520435129
18.5349,0.0366565695105707
18.535,0.145514192370441
18.5351,0.296240123259682
18.5352,0.50397136479921
18.5353,0.715567372240034
18.5354,0.998017462852691
18.5355,1.23312418349038
18.5356,1.54906904183635
18.5357,1.83635029866702
18.5358,2.06566008968863
18.5359,2.2917493290706
18.536,2.44247554578243
18.5361,2.56582631168744
18.5362,2.67983723423152
18.5363,2.68885504867327
18.5364,2.75648866352856
18.5365,2.76776093380865
18.5366,2.82186783576821
18.5367,2.80866317446085
18.5368,2.74747084754057
18.5369,2.69110950231546
18.537,2.67017529041153
18.5371,2.62927306412518
18.5372,2.54199352390057
18.5373,2.51912693145791
18.5374,2.47242755625383
18.5375,2.40576018081606
18.5376,2.4183207000773
18.5377,2.38997901607604
18.5378,2.41445592488334
18.5379,2.40704843918601
18.538,2.35745049452425
18.5381,2.32749849151272
18.5382,2.31590416826952
18.5383,2.34456791235288
18.5384,2.34456791235288
18.5385,2.32105720078762
18.5386,2.31880274905418
18.5387,2.31461591014859
18.5388,2.21831862514914
18.5389,2.1458541250394
18.539,2.08111917993219
18.5391,1.98482193711396
18.5392,1.86501401790844
18.5393,1.69464204149683
18.5394,1.50559038544257
18.5395,1.25953343409072
18.5396,0.986745223692538
18.5397,0.692056704477226
18.5398,0.379010556769206
18.5399,0.113951923633702
18.54,-0.191042683149467
18.5401,-0.423250876779444
18.5402,-0.673172661362505
18.5403,-0.876395206946173
18.5404,-1.03613912482994
18.5405,-1.15594709344227
18.5406,-1.20554502404295
18.5407,-1.25514295960107
18.5408,-1.29797754440858
18.5409,-1.32599716213572
18.541,-1.335659099674
18.5411,-1.3723744641726
18.5412,-1.35788155678118
18.5413,-1.39556311696531
18.5414,-1.41553112449955
18.5415,-1.37173033494538
18.5416,-1.42744751652109
18.5417,-1.46351875920992
18.5418,-1.48219851106816
18.5419,-1.47060418223309
18.542,-1.49830174608267
18.5421,-1.53759364209053
18.5422,-1.55273068498016
18.5423,-1.61231266773207
18.5424,-1.63292481515954
18.5425,-1.65418109331154
18.5426,-1.69669365306358
18.5427,-1.74210480159762
18.5428,-1.78687182568856
18.5429,-1.81456941163143
18.543,-1.78332911135684
18.5431,-1.76207282607248
18.5432,-1.75305500843689
18.5433,-1.74564751554035
18.5434,-1.7221367781744
18.5435,-1.69315093957371
18.5436,-1.71118657222417
18.5437,-1.69089648555157
18.5438,-1.62036428769461
18.5439,-1.60748169583198
18.544,-1.5285758295669
18.5441,-1.45739953032889
18.5442,-1.39169834141677
18.5443,-1.29057005954186
18.5444,-1.14338657931973
18.5445,-1.01037397376872
18.5446,-0.789115785852675
18.5447,-0.501834522380473
18.5448,-0.189754427013697
18.5449,0.170635181452139
18.545,0.583199093194463
18.5451,1.00091603864776
18.5452,1.40639464387688
18.5453,1.8157381867238
18.5454,2.18740043720535
18.5455,2.43828870576806
18.5456,2.69078743750865
18.5457,2.85600671837387
18.5458,2.90721504818615
18.5459,2.84795509483649
18.546,2.71912914150596
18.5461,2.54392591204998
18.5462,2.26179733011568
18.5463,1.96485394895423
18.5464,1.73940896511192
18.5465,1.44504233414735
18.5466,1.19189998855663
18.5467,0.977727432412729
18.5468,0.76291077207985
18.5469,0.603811185172302
18.547,0.441168897051432
18.5471,0.276272158499714
18.5472,0.162905646379112
18.5473,0.0814234624909195
18.5474,0.0315035457862168
18.5475,0.039555145348804
18.5476,0.0933398295063014
18.5477,0.144225936512627
18.5478,0.183839803810907
18.5479,0.273695646909359
18.548,0.33070096541669
18.5481,0.410250758948293
18.5482,0.45823828575047
18.5483,0.508158195974635
18.5484,0.5042934287358
18.5485,0.484325464659318
18.5486,0.407030119555366
18.5487,0.333599540911913
18.5488,0.232793525132792
18.5489,0.162261518455212
